t(c)	V(m/s)
0.000	10.000
0.001	10.035
0.002	10.070
0.003	10.105
0.004	10.139
0.005	10.174
0.006	10.209
0.007	10.244
0.008	10.279
0.009	10.314
0.010	10.349
0.011	10.383
0.012	10.418
0.013	10.453
0.014	10.488
0.015	10.523
0.016	10.558
0.017	10.593
0.018	10.627
0.019	10.662
0.020	10.697
0.021	10.732
0.022	10.767
0.023	10.802
0.024	10.837
0.025	10.871
0.026	10.906
0.027	10.941
0.028	10.976
0.029	11.011
0.030	11.046
0.031	11.081
0.032	11.116
0.033	11.150
0.034	11.185
0.035	11.220
0.036	11.255
0.037	11.290
0.038	11.325
0.039	11.360
0.040	11.395
0.041	11.429
0.042	11.464
0.043	11.499
0.044	11.534
0.045	11.569
0.046	11.604
0.047	11.639
0.048	11.674
0.049	11.708
0.050	11.743
0.051	11.778
0.052	11.813
0.053	11.848
0.054	11.883
0.055	11.918
0.056	11.953
0.057	11.988
0.058	12.022
0.059	12.057
0.060	12.092
0.061	12.127
0.062	12.162
0.063	12.197
0.064	12.232
0.065	12.267
0.066	12.302
0.067	12.337
0.068	12.371
0.069	12.406
0.070	12.441
0.071	12.476
0.072	12.511
0.073	12.546
0.074	12.581
0.075	12.616
0.076	12.651
0.077	12.686
0.078	12.720
0.079	12.755
0.080	12.790
0.081	12.825
0.082	12.860
0.083	12.895
0.084	12.930
0.085	12.965
0.086	13.000
0.087	13.035
0.088	13.070
0.089	13.105
0.090	13.139
0.091	13.174
0.092	13.209
0.093	13.244
0.094	13.279
0.095	13.314
0.096	13.349
0.097	13.384
0.098	13.419
0.099	13.454
0.100	13.489
0.101	13.524
0.102	13.558
0.103	13.593
0.104	13.628
0.105	13.663
0.106	13.698
0.107	13.733
0.108	13.768
0.109	13.803
0.110	13.838
0.111	13.873
0.112	13.908
0.113	13.943
0.114	13.978
0.115	14.013
0.116	14.047
0.117	14.082
0.118	14.117
0.119	14.152
0.120	14.187
0.121	14.222
0.122	14.257
0.123	14.292
0.124	14.327
0.125	14.362
0.126	14.397
0.127	14.432
0.128	14.467
0.129	14.502
0.130	14.537
0.131	14.572
0.132	14.607
0.133	14.642
0.134	14.676
0.135	14.711
0.136	14.746
0.137	14.781
0.138	14.816
0.139	14.851
0.140	14.886
0.141	14.921
0.142	14.956
0.143	14.991
0.144	15.026
0.145	15.061
0.146	15.096
0.147	15.131
0.148	15.166
0.149	15.201
0.150	15.236
0.151	15.271
0.152	15.306
0.153	15.341
0.154	15.376
0.155	15.411
0.156	15.446
0.157	15.480
0.158	15.515
0.159	15.550
0.160	15.585
0.161	15.620
0.162	15.655
0.163	15.690
0.164	15.725
0.165	15.760
0.166	15.795
0.167	15.830
0.168	15.865
0.169	15.900
0.170	15.935
0.171	15.970
0.172	16.005
0.173	16.040
0.174	16.075
0.175	16.110
0.176	16.145
0.177	16.180
0.178	16.215
0.179	16.250
0.180	16.285
0.181	16.320
0.182	16.355
0.183	16.390
0.184	16.425
0.185	16.460
0.186	16.495
0.187	16.530
0.188	16.565
0.189	16.600
0.190	16.635
0.191	16.670
0.192	16.705
0.193	16.740
0.194	16.775
0.195	16.810
0.196	16.845
0.197	16.880
0.198	16.915
0.199	16.950
0.200	16.985
0.201	17.020
0.202	17.055
0.203	17.090
0.204	17.125
0.205	17.160
0.206	17.195
0.207	17.230
0.208	17.265
0.209	17.300
0.210	17.335
0.211	17.370
0.212	17.405
0.213	17.440
0.214	17.475
0.215	17.510
0.216	17.545
0.217	17.580
0.218	17.615
0.219	17.650
0.220	17.685
0.221	17.720
0.222	17.755
0.223	17.790
0.224	17.825
0.225	17.860
0.226	17.895
0.227	17.930
0.228	17.965
0.229	18.000
0.230	18.035
0.231	18.070
0.232	18.105
0.233	18.140
0.234	18.175
0.235	18.210
0.236	18.245
0.237	18.280
0.238	18.315
0.239	18.350
0.240	18.385
0.241	18.420
0.242	18.455
0.243	18.490
0.244	18.525
0.245	18.560
0.246	18.595
0.247	18.630
0.248	18.665
0.249	18.700
0.250	18.735
0.251	18.771
0.252	18.806
0.253	18.841
0.254	18.876
0.255	18.911
0.256	18.946
0.257	18.981
0.258	19.016
0.259	19.051
0.260	19.086
0.261	19.121
0.262	19.156
0.263	19.191
0.264	19.226
0.265	19.261
0.266	19.296
0.267	19.331
0.268	19.366
0.269	19.401
0.270	19.436
0.271	19.471
0.272	19.506
0.273	19.541
0.274	19.577
0.275	19.612
0.276	19.647
0.277	19.682
0.278	19.717
0.279	19.752
0.280	19.787
0.281	19.822
0.282	19.857
0.283	19.892
0.284	19.927
0.285	19.962
0.286	19.997
0.287	20.032
0.288	20.067
0.289	20.102
0.290	20.137
0.291	20.173
0.292	20.208
0.293	20.243
0.294	20.278
0.295	20.313
0.296	20.348
0.297	20.383
0.298	20.418
0.299	20.453
0.300	20.488
0.301	20.523
0.302	20.558
0.303	20.593
0.304	20.628
0.305	20.663
0.306	20.699
0.307	20.734
0.308	20.769
0.309	20.804
0.310	20.839
0.311	20.874
0.312	20.909
0.313	20.944
0.314	20.979
0.315	21.014
0.316	21.049
0.317	21.084
0.318	21.119
0.319	21.155
0.320	21.190
0.321	21.225
0.322	21.260
0.323	21.295
0.324	21.330
0.325	21.365
0.326	21.400
0.327	21.435
0.328	21.470
0.329	21.505
0.330	21.541
0.331	21.576
0.332	21.611
0.333	21.646
0.334	21.681
0.335	21.716
0.336	21.751
0.337	21.786
0.338	21.821
0.339	21.856
0.340	21.891
0.341	21.927
0.342	21.962
0.343	21.997
0.344	22.032
0.345	22.067
0.346	22.102
0.347	22.137
0.348	22.172
0.349	22.207
0.350	22.243
0.351	22.278
0.352	22.313
0.353	22.348
0.354	22.383
0.355	22.418
0.356	22.453
0.357	22.488
0.358	22.523
0.359	22.559
0.360	22.594
0.361	22.629
0.362	22.664
0.363	22.699
0.364	22.734
0.365	22.769
0.366	22.804
0.367	22.839
0.368	22.875
0.369	22.910
0.370	22.945
0.371	22.980
0.372	23.015
0.373	23.050
0.374	23.085
0.375	23.120
0.376	23.156
0.377	23.191
0.378	23.226
0.379	23.261
0.380	23.296
0.381	23.331
0.382	23.366
0.383	23.401
0.384	23.437
0.385	23.472
0.386	23.507
0.387	23.542
0.388	23.577
0.389	23.612
0.390	23.647
0.391	23.682
0.392	23.718
0.393	23.753
0.394	23.788
0.395	23.823
0.396	23.858
0.397	23.893
0.398	23.928
0.399	23.964
0.400	23.999
0.401	24.034
0.402	24.069
0.403	24.104
0.404	24.139
0.405	24.174
0.406	24.210
0.407	24.245
0.408	24.280
0.409	24.315
0.410	24.350
0.411	24.385
0.412	24.420
0.413	24.456
0.414	24.491
0.415	24.526
0.416	24.561
0.417	24.596
0.418	24.631
0.419	24.667
0.420	24.702
0.421	24.737
0.422	24.772
0.423	24.807
0.424	24.842
0.425	24.878
0.426	24.913
0.427	24.948
0.428	24.983
0.429	25.018
0.430	25.053
0.431	25.088
0.432	25.124
0.433	25.159
0.434	25.194
0.435	25.229
0.436	25.264
0.437	25.299
0.438	25.335
0.439	25.370
0.440	25.405
0.441	25.440
0.442	25.475
0.443	25.511
0.444	25.546
0.445	25.581
0.446	25.616
0.447	25.651
0.448	25.686
0.449	25.722
0.450	25.757
0.451	25.792
0.452	25.827
0.453	25.862
0.454	25.897
0.455	25.933
0.456	25.968
0.457	26.003
0.458	26.038
0.459	26.073
0.460	26.109
0.461	26.144
0.462	26.179
0.463	26.214
0.464	26.249
0.465	26.284
0.466	26.320
0.467	26.355
0.468	26.390
0.469	26.425
0.470	26.460
0.471	26.496
0.472	26.531
0.473	26.566
0.474	26.601
0.475	26.636
0.476	26.672
0.477	26.707
0.478	26.742
0.479	26.777
0.480	26.812
0.481	26.848
0.482	26.883
0.483	26.918
0.484	26.953
0.485	26.988
0.486	27.024
0.487	27.059
0.488	27.094
0.489	27.129
0.490	27.164
0.491	27.200
0.492	27.235
0.493	27.270
0.494	27.305
0.495	27.340
0.496	27.376
0.497	27.411
0.498	27.446
0.499	27.481
0.500	27.516
0.501	27.552
0.502	27.587
0.503	27.622
0.504	27.657
0.505	27.693
0.506	27.728
0.507	27.763
0.508	27.798
0.509	27.833
0.510	27.869
0.511	27.904
0.512	27.939
0.513	27.974
0.514	28.010
0.515	28.045
0.516	28.080
0.517	28.115
0.518	28.150
0.519	28.186
0.520	28.221
0.521	28.256
0.522	28.291
0.523	28.327
0.524	28.362
0.525	28.397
0.526	28.432
0.527	28.468
0.528	28.503
0.529	28.538
0.530	28.573
0.531	28.608
0.532	28.644
0.533	28.679
0.534	28.714
0.535	28.749
0.536	28.785
0.537	28.820
0.538	28.855
0.539	28.890
0.540	28.926
0.541	28.961
0.542	28.996
0.543	29.031
0.544	29.067
0.545	29.102
0.546	29.137
0.547	29.172
0.548	29.208
0.549	29.243
0.550	29.278
0.551	29.313
0.552	29.349
0.553	29.384
0.554	29.419
0.555	29.454
0.556	29.490
0.557	29.525
0.558	29.560
0.559	29.595
0.560	29.631
0.561	29.666
0.562	29.701
0.563	29.736
0.564	29.772
0.565	29.807
0.566	29.842
0.567	29.877
0.568	29.913
0.569	29.948
0.570	29.983
0.571	30.018
0.572	30.054
0.573	30.089
0.574	30.124
0.575	30.159
0.576	30.195
0.577	30.230
0.578	30.265
0.579	30.301
0.580	30.336
0.581	30.371
0.582	30.406
0.583	30.442
0.584	30.477
0.585	30.512
0.586	30.547
0.587	30.583
0.588	30.618
0.589	30.653
0.590	30.688
0.591	30.724
0.592	30.759
0.593	30.794
0.594	30.830
0.595	30.865
0.596	30.900
0.597	30.935
0.598	30.971
0.599	31.006
0.600	31.041
0.601	31.077
0.602	31.112
0.603	31.147
0.604	31.182
0.605	31.218
0.606	31.253
0.607	31.288
0.608	31.324
0.609	31.359
0.610	31.394
0.611	31.429
0.612	31.465
0.613	31.500
0.614	31.535
0.615	31.571
0.616	31.606
0.617	31.641
0.618	31.676
0.619	31.712
0.620	31.747
0.621	31.782
0.622	31.818
0.623	31.853
0.624	31.888
0.625	31.924
0.626	31.959
0.627	31.994
0.628	32.029
0.629	32.065
0.630	32.100
0.631	32.135
0.632	32.171
0.633	32.206
0.634	32.241
0.635	32.277
0.636	32.312
0.637	32.347
0.638	32.383
0.639	32.418
0.640	32.453
0.641	32.488
0.642	32.524
0.643	32.559
0.644	32.594
0.645	32.630
0.646	32.665
0.647	32.700
0.648	32.736
0.649	32.771
0.650	32.806
0.651	32.842
0.652	32.877
0.653	32.912
0.654	32.948
0.655	32.983
0.656	33.018
0.657	33.054
0.658	33.089
0.659	33.124
0.660	33.159
0.661	33.195
0.662	33.230
0.663	33.265
0.664	33.301
0.665	33.336
0.666	33.371
0.667	33.407
0.668	33.442
0.669	33.477
0.670	33.513
0.671	33.548
0.672	33.583
0.673	33.619
0.674	33.654
0.675	33.689
0.676	33.725
0.677	33.760
0.678	33.795
0.679	33.831
0.680	33.866
0.681	33.901
0.682	33.937
0.683	33.972
0.684	34.007
0.685	34.043
0.686	34.078
0.687	34.114
0.688	34.149
0.689	34.184
0.690	34.220
0.691	34.255
0.692	34.290
0.693	34.326
0.694	34.361
0.695	34.396
0.696	34.432
0.697	34.467
0.698	34.502
0.699	34.538
0.700	34.573
0.701	34.608
0.702	34.644
0.703	34.679
0.704	34.714
0.705	34.750
0.706	34.785
0.707	34.820
0.708	34.856
0.709	34.891
0.710	34.927
0.711	34.962
0.712	34.997
0.713	35.033
0.714	35.068
0.715	35.103
0.716	35.139
0.717	35.174
0.718	35.209
0.719	35.245
0.720	35.280
0.721	35.316
0.722	35.351
0.723	35.386
0.724	35.422
0.725	35.457
0.726	35.492
0.727	35.528
0.728	35.563
0.729	35.599
0.730	35.634
0.731	35.669
0.732	35.705
0.733	35.740
0.734	35.775
0.735	35.811
0.736	35.846
0.737	35.882
0.738	35.917
0.739	35.952
0.740	35.988
0.741	36.023
0.742	36.058
0.743	36.094
0.744	36.129
0.745	36.165
0.746	36.200
0.747	36.235
0.748	36.271
0.749	36.306
0.750	36.341
0.751	36.377
0.752	36.412
0.753	36.448
0.754	36.483
0.755	36.518
0.756	36.554
0.757	36.589
0.758	36.625
0.759	36.660
0.760	36.695
0.761	36.731
0.762	36.766
0.763	36.802
0.764	36.837
0.765	36.872
0.766	36.908
0.767	36.943
0.768	36.979
0.769	37.014
0.770	37.049
0.771	37.085
0.772	37.120
0.773	37.156
0.774	37.191
0.775	37.226
0.776	37.262
0.777	37.297
0.778	37.333
0.779	37.368
0.780	37.403
0.781	37.439
0.782	37.474
0.783	37.510
0.784	37.545
0.785	37.580
0.786	37.616
0.787	37.651
0.788	37.687
0.789	37.722
0.790	37.757
0.791	37.793
0.792	37.828
0.793	37.864
0.794	37.899
0.795	37.935
0.796	37.970
0.797	38.005
0.798	38.041
0.799	38.076
0.800	38.112
0.801	38.147
0.802	38.182
0.803	38.218
0.804	38.253
0.805	38.289
0.806	38.324
0.807	38.360
0.808	38.395
0.809	38.430
0.810	38.466
0.811	38.501
0.812	38.537
0.813	38.572
0.814	38.608
0.815	38.643
0.816	38.678
0.817	38.714
0.818	38.749
0.819	38.785
0.820	38.820
0.821	38.856
0.822	38.891
0.823	38.926
0.824	38.962
0.825	38.997
0.826	39.033
0.827	39.068
0.828	39.104
0.829	39.139
0.830	39.175
0.831	39.210
0.832	39.245
0.833	39.281
0.834	39.316
0.835	39.352
0.836	39.387
0.837	39.423
0.838	39.458
0.839	39.493
0.840	39.529
0.841	39.564
0.842	39.600
0.843	39.635
0.844	39.671
0.845	39.706
0.846	39.742
0.847	39.777
0.848	39.813
0.849	39.848
0.850	39.883
0.851	39.919
0.852	39.954
0.853	39.990
0.854	40.025
0.855	40.061
0.856	40.096
0.857	40.132
0.858	40.167
0.859	40.203
0.860	40.238
0.861	40.273
0.862	40.309
0.863	40.344
0.864	40.380
0.865	40.415
0.866	40.451
0.867	40.486
0.868	40.522
0.869	40.557
0.870	40.593
0.871	40.628
0.872	40.664
0.873	40.699
0.874	40.735
0.875	40.770
0.876	40.805
0.877	40.841
0.878	40.876
0.879	40.912
0.880	40.947
0.881	40.983
0.882	41.018
0.883	41.054
0.884	41.089
0.885	41.125
0.886	41.160
0.887	41.196
0.888	41.231
0.889	41.267
0.890	41.302
0.891	41.338
0.892	41.373
0.893	41.409
0.894	41.444
0.895	41.480
0.896	41.515
0.897	41.551
0.898	41.586
0.899	41.621
0.900	41.657
0.901	41.692
0.902	41.728
0.903	41.763
0.904	41.799
0.905	41.834
0.906	41.870
0.907	41.905
0.908	41.941
0.909	41.976
0.910	42.012
0.911	42.047
0.912	42.083
0.913	42.118
0.914	42.154
0.915	42.189
0.916	42.225
0.917	42.260
0.918	42.296
0.919	42.331
0.920	42.367
0.921	42.402
0.922	42.438
0.923	42.473
0.924	42.509
0.925	42.544
0.926	42.580
0.927	42.615
0.928	42.651
0.929	42.686
0.930	42.722
0.931	42.757
0.932	42.793
0.933	42.828
0.934	42.864
0.935	42.899
0.936	42.935
0.937	42.970
0.938	43.006
0.939	43.041
0.940	43.077
0.941	43.112
0.942	43.148
0.943	43.184
0.944	43.219
0.945	43.255
0.946	43.290
0.947	43.326
0.948	43.361
0.949	43.397
0.950	43.432
0.951	43.468
0.952	43.503
0.953	43.539
0.954	43.574
0.955	43.610
0.956	43.645
0.957	43.681
0.958	43.716
0.959	43.752
0.960	43.787
0.961	43.823
0.962	43.858
0.963	43.894
0.964	43.930
0.965	43.965
0.966	44.001
0.967	44.036
0.968	44.072
0.969	44.107
0.970	44.143
0.971	44.178
0.972	44.214
0.973	44.249
0.974	44.285
0.975	44.320
0.976	44.356
0.977	44.391
0.978	44.427
0.979	44.463
0.980	44.498
0.981	44.534
0.982	44.569
0.983	44.605
0.984	44.640
0.985	44.676
0.986	44.711
0.987	44.747
0.988	44.782
0.989	44.818
0.990	44.854
0.991	44.889
0.992	44.925
0.993	44.960
0.994	44.996
0.995	45.031
0.996	45.067
0.997	45.102
0.998	45.138
0.999	45.173
1.000	45.209
1.001	45.245
1.002	45.280
1.003	45.316
1.004	45.351
1.005	45.387
1.006	45.422
1.007	45.458
1.008	45.493
1.009	45.529
1.010	45.565
1.011	45.600
1.012	45.636
1.013	45.671
1.014	45.707
1.015	45.742
1.016	45.778
1.017	45.814
1.018	45.849
1.019	45.885
1.020	45.920
1.021	45.956
1.022	45.991
1.023	46.027
1.024	46.062
1.025	46.098
1.026	46.134
1.027	46.169
1.028	46.205
1.029	46.240
1.030	46.276
1.031	46.311
1.032	46.347
1.033	46.383
1.034	46.418
1.035	46.454
1.036	46.489
1.037	46.525
1.038	46.561
1.039	46.596
1.040	46.632
1.041	46.667
1.042	46.703
1.043	46.738
1.044	46.774
1.045	46.810
1.046	46.845
1.047	46.881
1.048	46.916
1.049	46.952
1.050	46.988
1.051	47.023
1.052	47.059
1.053	47.094
1.054	47.130
1.055	47.165
1.056	47.201
1.057	47.237
1.058	47.272
1.059	47.308
1.060	47.343
1.061	47.379
1.062	47.415
1.063	47.450
1.064	47.486
1.065	47.521
1.066	47.557
1.067	47.593
1.068	47.628
1.069	47.664
1.070	47.699
1.071	47.735
1.072	47.771
1.073	47.806
1.074	47.842
1.075	47.877
1.076	47.913
1.077	47.949
1.078	47.984
1.079	48.020
1.080	48.055
1.081	48.091
1.082	48.127
1.083	48.162
1.084	48.198
1.085	48.233
1.086	48.269
1.087	48.305
1.088	48.340
1.089	48.376
1.090	48.412
1.091	48.447
1.092	48.483
1.093	48.518
1.094	48.554
1.095	48.590
1.096	48.625
1.097	48.661
1.098	48.696
1.099	48.732
1.100	48.768
1.101	48.803
1.102	48.839
1.103	48.875
1.104	48.910
1.105	48.946
1.106	48.981
1.107	49.017
1.108	49.053
1.109	49.088
1.110	49.124
1.111	49.160
1.112	49.195
1.113	49.231
1.114	49.266
1.115	49.302
1.116	49.338
1.117	49.373
1.118	49.409
1.119	49.445
1.120	49.480
1.121	49.516
1.122	49.551
1.123	49.587
1.124	49.623
1.125	49.658
1.126	49.694
1.127	49.730
1.128	49.765
1.129	49.801
1.130	49.837
1.131	49.872
1.132	49.908
1.133	49.943
1.134	49.979
1.135	50.015
1.136	50.050
1.137	50.086
1.138	50.122
1.139	50.157
1.140	50.193
1.141	50.229
1.142	50.264
1.143	50.300
1.144	50.336
1.145	50.371
1.146	50.407
1.147	50.442
1.148	50.478
1.149	50.514
1.150	50.549
1.151	50.585
1.152	50.621
1.153	50.656
1.154	50.692
1.155	50.728
1.156	50.763
1.157	50.799
1.158	50.835
1.159	50.870
1.160	50.906
1.161	50.942
1.162	50.977
1.163	51.013
1.164	51.049
1.165	51.084
1.166	51.120
1.167	51.156
1.168	51.191
1.169	51.227
1.170	51.263
1.171	51.298
1.172	51.334
1.173	51.370
1.174	51.405
1.175	51.441
1.176	51.477
1.177	51.512
1.178	51.548
1.179	51.584
1.180	51.619
1.181	51.655
1.182	51.691
1.183	51.726
1.184	51.762
1.185	51.798
1.186	51.833
1.187	51.869
1.188	51.905
1.189	51.940
1.190	51.976
1.191	52.012
1.192	52.047
1.193	52.083
1.194	52.119
1.195	52.154
1.196	52.190
1.197	52.226
1.198	52.261
1.199	52.297
1.200	52.333
1.201	52.369
1.202	52.404
1.203	52.440
1.204	52.476
1.205	52.511
1.206	52.547
1.207	52.583
1.208	52.618
1.209	52.654
1.210	52.690
1.211	52.725
1.212	52.761
1.213	52.797
1.214	52.832
1.215	52.868
1.216	52.904
1.217	52.940
1.218	52.975
1.219	53.011
1.220	53.047
1.221	53.082
1.222	53.118
1.223	53.154
1.224	53.189
1.225	53.225
1.226	53.261
1.227	53.297
1.228	53.332
1.229	53.368
1.230	53.404
1.231	53.439
1.232	53.475
1.233	53.511
1.234	53.546
1.235	53.582
1.236	53.618
1.237	53.654
1.238	53.689
1.239	53.725
1.240	53.761
1.241	53.796
1.242	53.832
1.243	53.868
1.244	53.904
1.245	53.939
1.246	53.975
1.247	54.011
1.248	54.046
1.249	54.082
1.250	54.118
1.251	54.154
1.252	54.189
1.253	54.225
1.254	54.261
1.255	54.296
1.256	54.332
1.257	54.368
1.258	54.404
1.259	54.439
1.260	54.475
1.261	54.511
1.262	54.547
1.263	54.582
1.264	54.618
1.265	54.654
1.266	54.689
1.267	54.725
1.268	54.761
1.269	54.797
1.270	54.832
1.271	54.868
1.272	54.904
1.273	54.940
1.274	54.975
1.275	55.011
1.276	55.047
1.277	55.082
1.278	55.118
1.279	55.154
1.280	55.190
1.281	55.225
1.282	55.261
1.283	55.297
1.284	55.333
1.285	55.368
1.286	55.404
1.287	55.440
1.288	55.476
1.289	55.511
1.290	55.547
1.291	55.583
1.292	55.619
1.293	55.654
1.294	55.690
1.295	55.726
1.296	55.761
1.297	55.797
1.298	55.833
1.299	55.869
1.300	55.904
1.301	55.940
1.302	55.976
1.303	56.012
1.304	56.047
1.305	56.083
1.306	56.119
1.307	56.155
1.308	56.190
1.309	56.226
1.310	56.262
1.311	56.298
1.312	56.334
1.313	56.369
1.314	56.405
1.315	56.441
1.316	56.477
1.317	56.512
1.318	56.548
1.319	56.584
1.320	56.620
1.321	56.655
1.322	56.691
1.323	56.727
1.324	56.763
1.325	56.798
1.326	56.834
1.327	56.870
1.328	56.906
1.329	56.941
1.330	56.977
1.331	57.013
1.332	57.049
1.333	57.085
1.334	57.120
1.335	57.156
1.336	57.192
1.337	57.228
1.338	57.263
1.339	57.299
1.340	57.335
1.341	57.371
1.342	57.406
1.343	57.442
1.344	57.478
1.345	57.514
1.346	57.550
1.347	57.585
1.348	57.621
1.349	57.657
1.350	57.693
1.351	57.728
1.352	57.764
1.353	57.800
1.354	57.836
1.355	57.872
1.356	57.907
1.357	57.943
1.358	57.979
1.359	58.015
1.360	58.051
1.361	58.086
1.362	58.122
1.363	58.158
1.364	58.194
1.365	58.229
1.366	58.265
1.367	58.301
1.368	58.337
1.369	58.373
1.370	58.408
1.371	58.444
1.372	58.480
1.373	58.516
1.374	58.552
1.375	58.587
1.376	58.623
1.377	58.659
1.378	58.695
1.379	58.731
1.380	58.766
1.381	58.802
1.382	58.838
1.383	58.874
1.384	58.910
1.385	58.945
1.386	58.981
1.387	59.017
1.388	59.053
1.389	59.089
1.390	59.124
1.391	59.160
1.392	59.196
1.393	59.232
1.394	59.268
1.395	59.303
1.396	59.339
1.397	59.375
1.398	59.411
1.399	59.447
1.400	59.482
1.401	59.518
1.402	59.554
1.403	59.590
1.404	59.626
1.405	59.662
1.406	59.697
1.407	59.733
1.408	59.769
1.409	59.805
1.410	59.841
1.411	59.876
1.412	59.912
1.413	59.948
1.414	59.984
1.415	60.020
1.416	60.056
1.417	60.091
1.418	60.127
1.419	60.163
1.420	60.199
1.421	60.235
1.422	60.270
1.423	60.306
1.424	60.342
1.425	60.378
1.426	60.414
1.427	60.450
1.428	60.485
1.429	60.521
1.430	60.557
1.431	60.593
1.432	60.629
1.433	60.665
1.434	60.700
1.435	60.736
1.436	60.772
1.437	60.808
1.438	60.844
1.439	60.880
1.440	60.915
1.441	60.951
1.442	60.987
1.443	61.023
1.444	61.059
1.445	61.095
1.446	61.130
1.447	61.166
1.448	61.202
1.449	61.238
1.450	61.274
1.451	61.310
1.452	61.346
1.453	61.381
1.454	61.417
1.455	61.453
1.456	61.489
1.457	61.525
1.458	61.561
1.459	61.596
1.460	61.632
1.461	61.668
1.462	61.704
1.463	61.740
1.464	61.776
1.465	61.812
1.466	61.847
1.467	61.883
1.468	61.919
1.469	61.955
1.470	61.991
1.471	62.027
1.472	62.063
1.473	62.098
1.474	62.134
1.475	62.170
1.476	62.206
1.477	62.242
1.478	62.278
1.479	62.314
1.480	62.349
1.481	62.385
1.482	62.421
1.483	62.457
1.484	62.493
1.485	62.529
1.486	62.565
1.487	62.600
1.488	62.636
1.489	62.672
1.490	62.708
1.491	62.744
1.492	62.780
1.493	62.816
1.494	62.852
1.495	62.887
1.496	62.923
1.497	62.959
1.498	62.995
1.499	63.031
1.500	63.067
1.501	63.103
1.502	63.139
1.503	63.174
1.504	63.210
1.505	63.246
1.506	63.282
1.507	63.318
1.508	63.354
1.509	63.390
1.510	63.426
1.511	63.461
1.512	63.497
1.513	63.533
1.514	63.569
1.515	63.605
1.516	63.641
1.517	63.677
1.518	63.713
1.519	63.749
1.520	63.784
1.521	63.820
1.522	63.856
1.523	63.892
1.524	63.928
1.525	63.964
1.526	64.000
1.527	64.036
1.528	64.072
1.529	64.107
1.530	64.143
1.531	64.179
1.532	64.215
1.533	64.251
1.534	64.287
1.535	64.323
1.536	64.359
