x(m)	y(m)
0.00	0.00
0.01	0.10
0.02	0.21
0.03	0.31
0.04	0.43
0.05	0.54
0.06	0.66
0.07	0.78
0.08	0.91
0.09	1.04
0.11	1.17
0.12	1.31
0.13	1.44
0.15	1.59
0.16	1.73
0.18	1.88
0.19	2.04
0.21	2.19
0.22	2.35
0.24	2.52
0.26	2.69
0.27	2.86
0.29	3.03
0.31	3.21
0.33	3.39
0.35	3.57
0.37	3.76
0.39	3.95
0.41	4.15
0.43	4.35
0.45	4.55
0.47	4.75
0.50	4.96
0.52	5.18
0.54	5.39
0.57	5.61
0.59	5.83
0.62	6.06
0.64	6.29
0.67	6.52
0.69	6.76
0.72	7.00
0.75	7.24
0.78	7.49
0.80	7.74
0.83	8.00
0.86	8.25
0.89	8.51
0.92	8.78
0.95	9.05
0.99	9.32
1.02	9.59
1.05	9.87
1.08	10.15
1.12	10.44
1.15	10.73
1.19	11.02
1.22	11.32
1.26	11.62
1.29	11.92
1.33	12.23
1.37	12.54
1.41	12.85
1.44	13.17
1.48	13.49
1.52	13.81
1.56	14.14
1.60	14.47
1.64	14.80
1.69	15.14
1.73	15.48
1.77	15.83
1.81	16.18
1.86	16.53
1.90	16.88
1.95	17.24
1.99	17.60
2.04	17.97
2.09	18.34
2.13	18.71
2.18	19.09
2.23	19.47
2.28	19.85
2.33	20.24
2.38	20.63
2.43	21.02
2.48	21.42
2.53	21.82
2.59	22.23
2.64	22.63
2.69	23.04
2.75	23.46
2.80	23.88
2.86	24.30
2.91	24.72
2.97	25.15
3.03	25.59
3.08	26.02
3.14	26.46
3.20	26.90
3.26	27.35
3.32	27.80
3.38	28.25
3.44	28.71
3.51	29.17
3.57	29.63
3.63	30.10
3.70	30.57
3.76	31.05
3.83	31.53
3.89	32.01
3.96	32.49
4.02	32.98
4.09	33.47
4.16	33.97
4.23	34.47
4.30	34.97
4.37	35.48
4.44	35.98
4.51	36.50
4.58	37.01
4.65	37.53
4.73	38.06
4.80	38.59
4.88	39.12
4.95	39.65
5.03	40.19
5.10	40.73
5.18	41.27
5.26	41.82
5.33	42.37
5.41	42.93
5.49	43.49
5.57	44.05
5.65	44.62
5.74	45.19
5.82	45.76
5.90	46.33
5.98	46.91
6.07	47.50
6.15	48.08
6.24	48.68
6.32	49.27
6.41	49.87
6.50	50.47
6.58	51.07
6.67	51.68
6.76	52.29
6.85	52.91
6.94	53.53
7.03	54.15
7.13	54.77
7.22	55.40
7.31	56.04
7.40	56.67
7.50	57.31
7.59	57.96
7.69	58.60
7.79	59.25
7.88	59.91
7.98	60.57
8.08	61.23
8.18	61.89
8.28	62.56
8.38	63.23
8.48	63.91
8.58	64.58
8.68	65.27
8.79	65.95
8.89	66.64
9.00	67.34
9.10	68.03
9.21	68.73
9.31	69.43
9.42	70.14
9.53	70.85
9.64	71.57
9.75	72.28
9.86	73.01
9.97	73.73
10.08	74.46
10.19	75.19
10.30	75.93
10.42	76.66
10.53	77.41
10.65	78.15
10.76	78.90
10.88	79.66
11.00	80.41
11.11	81.17
11.23	81.94
11.35	82.70
11.47	83.47
11.59	84.25
11.71	85.03
11.84	85.81
11.96	86.59
12.08	87.38
12.21	88.17
12.33	88.97
12.46	89.77
12.58	90.57
12.71	91.38
12.84	92.19
12.96	93.00
13.09	93.82
13.22	94.64
13.35	95.46
13.48	96.29
13.62	97.12
13.75	97.96
13.88	98.79
14.02	99.64
14.15	100.48
14.29	101.33
14.42	102.18
14.56	103.04
14.70	103.90
14.84	104.76
14.98	105.63
15.12	106.50
15.26	107.37
15.40	108.25
15.54	109.13
15.68	110.02
15.83	110.90
15.97	111.80
16.11	112.69
16.26	113.59
16.41	114.49
16.55	115.40
16.70	116.31
16.85	117.22
17.00	118.14
17.15	119.06
17.30	119.98
17.45	120.91
17.61	121.84
17.76	122.77
17.91	123.71
18.07	124.65
18.22	125.60
18.38	126.55
18.54	127.50
18.69	128.45
18.85	129.41
19.01	130.38
19.17	131.34
19.33	132.31
19.49	133.29
19.66	134.26
19.82	135.24
19.98	136.23
20.15	137.22
20.31	138.21
20.48	139.20
20.64	140.20
20.81	141.20
20.98	142.21
21.15	143.22
21.32	144.23
21.49	145.25
21.66	146.27
21.83	147.29
22.00	148.32
22.18	149.35
22.35	150.39
22.53	151.42
22.70	152.46
22.88	153.51
23.06	154.56
23.24	155.61
23.41	156.67
23.59	157.73
23.78	158.79
23.96	159.86
24.14	160.93
24.32	162.00
24.50	163.08
24.69	164.16
24.87	165.24
25.06	166.33
25.25	167.42
25.43	168.52
25.62	169.62
25.81	170.72
26.00	171.82
26.19	172.93
26.38	174.05
26.58	175.16
26.77	176.28
26.96	177.41
27.16	178.54
27.35	179.67
27.55	180.80
27.75	181.94
27.94	183.08
28.14	184.23
28.34	185.38
28.54	186.53
28.74	187.68
28.94	188.84
29.15	190.01
29.35	191.17
29.55	192.34
29.76	193.52
29.96	194.70
30.17	195.88
30.38	197.06
30.59	198.25
30.80	199.44
31.00	200.64
31.22	201.84
31.43	203.04
31.64	204.25
31.85	205.46
32.07	206.67
32.28	207.89
32.50	209.11
32.71	210.33
32.93	211.56
33.15	212.79
33.36	214.03
33.58	215.27
33.80	216.51
34.02	217.76
34.25	219.01
34.47	220.26
34.69	221.52
34.92	222.78
35.14	224.04
35.37	225.31
35.59	226.58
35.82	227.85
36.05	229.13
36.28	230.41
36.51	231.70
36.74	232.99
36.97	234.28
37.20	235.58
37.44	236.88
37.67	238.18
37.91	239.49
38.14	240.80
38.38	242.11
38.62	243.43
38.85	244.75
39.09	246.08
39.33	247.41
39.57	248.74
39.82	250.08
40.06	251.42
40.30	252.76
40.54	254.11
40.79	255.46
41.03	256.81
41.28	258.17
41.53	259.53
41.78	260.89
42.03	262.26
42.28	263.64
42.53	265.01
42.78	266.39
43.03	267.77
43.28	269.16
43.54	270.55
43.79	271.94
44.05	273.34
44.30	274.74
44.56	276.15
44.82	277.56
45.08	278.97
45.34	280.38
45.60	281.80
45.86	283.22
46.12	284.65
46.39	286.08
46.65	287.51
46.92	288.95
47.18	290.39
47.45	291.84
47.72	293.28
47.98	294.74
48.25	296.19
48.52	297.65
48.79	299.11
49.07	300.58
49.34	302.05
49.61	303.52
49.89	305.00
50.16	306.48
50.44	307.96
50.71	309.45
50.99	310.94
51.27	312.44
51.55	313.94
51.83	315.44
52.11	316.94
52.39	318.45
52.68	319.97
52.96	321.48
53.24	323.00
53.53	324.53
53.82	326.06
54.10	327.59
54.39	329.12
54.68	330.66
54.97	332.20
55.26	333.75
55.55	335.30
55.85	336.85
56.14	338.41
56.43	339.97
56.73	341.53
57.02	343.10
57.32	344.67
57.62	346.24
57.92	347.82
58.22	349.40
58.52	350.99
58.82	352.58
59.12	354.17
59.42	355.77
59.73	357.37
60.03	358.97
60.34	360.58
60.64	362.19
60.95	363.81
61.26	365.42
61.57	367.05
61.88	368.67
62.19	370.30
62.50	371.93
62.81	373.57
63.12	375.21
63.44	376.85
63.75	378.50
64.07	380.15
64.39	381.81
64.70	383.47
65.02	385.13
65.34	386.79
65.66	388.46
65.98	390.13
66.31	391.81
66.63	393.49
66.95	395.17
67.28	396.86
67.60	398.55
67.93	400.25
68.26	401.95
68.59	403.65
68.92	405.35
69.25	407.06
69.58	408.77
69.91	410.49
70.24	412.21
70.58	413.93
70.91	415.66
71.25	417.39
71.58	419.13
71.92	420.87
72.26	422.61
72.60	424.35
72.94	426.10
73.28	427.85
73.62	429.61
73.96	431.37
74.31	433.13
74.65	434.90
75.00	436.67
75.34	438.45
75.69	440.23
76.04	442.01
76.39	443.79
76.74	445.58
77.09	447.38
77.44	449.17
77.79	450.97
78.15	452.78
78.50	454.58
78.86	456.39
79.21	458.21
79.57	460.03
79.93	461.85
80.29	463.68
80.65	465.50
81.01	467.34
81.37	469.17
81.73	471.01
82.10	472.86
82.46	474.71
82.83	476.56
83.19	478.41
83.56	480.27
83.93	482.13
84.30	484.00
84.67	485.87
85.04	487.74
85.41	489.62
85.78	491.50
86.16	493.38
86.53	495.27
86.91	497.16
87.28	499.05
87.66	500.95
88.04	502.85
88.42	504.76
88.80	506.67
89.18	508.58
89.56	510.50
89.94	512.42
90.33	514.34
90.71	516.27
91.10	518.20
91.48	520.14
91.87	522.08
92.26	524.02
92.65	525.96
93.04	527.91
93.43	529.87
93.82	531.82
94.22	533.78
94.61	535.75
95.00	537.72
95.40	539.69
95.80	541.66
96.19	543.64
96.59	545.62
96.99	547.61
97.39	549.60
97.79	551.59
98.20	553.59
98.60	555.59
99.00	557.59
99.41	559.60
99.81	561.61
100.22	563.62
100.63	565.64
101.04	567.66
101.45	569.69
101.86	571.72
102.27	573.75
102.68	575.79
103.10	577.83
103.51	579.87
103.93	581.92
104.34	583.97
104.76	586.03
105.18	588.09
105.60	590.15
106.02	592.21
106.44	594.28
106.86	596.35
107.28	598.43
107.71	600.51
108.13	602.59
108.56	604.68
108.98	606.77
109.41	608.87
109.84	610.97
110.27	613.07
110.70	615.17
111.13	617.28
111.56	619.39
111.99	621.51
112.43	623.63
112.86	625.75
113.30	627.88
113.74	630.01
114.17	632.15
114.61	634.28
115.05	636.43
115.49	638.57
115.94	640.72
116.38	642.87
116.82	645.03
117.27	647.19
117.71	649.35
118.16	651.52
118.60	653.69
119.05	655.86
119.50	658.04
119.95	660.22
120.40	662.41
120.86	664.59
121.31	666.79
121.76	668.98
122.22	671.18
122.67	673.38
123.13	675.59
123.59	677.80
124.05	680.01
124.51	682.23
124.97	684.45
125.43	686.68
125.89	688.90
126.35	691.14
126.82	693.37
127.28	695.61
127.75	697.85
128.22	700.10
128.68	702.35
129.15	704.60
129.62	706.86
130.09	709.12
130.57	711.38
131.04	713.65
131.51	715.92
131.99	718.20
132.46	720.47
132.94	722.76
133.42	725.04
133.90	727.33
134.38	729.62
134.86	731.92
135.34	734.22
135.82	736.52
136.30	738.83
136.79	741.14
137.27	743.45
137.76	745.77
138.25	748.09
138.74	750.42
139.22	752.75
139.71	755.08
140.21	757.41
140.70	759.75
141.19	762.10
141.68	764.44
142.18	766.79
142.68	769.15
143.17	771.50
143.67	773.86
144.17	776.23
144.67	778.60
145.17	780.97
145.67	783.34
146.17	785.72
146.68	788.10
147.18	790.49
147.69	792.88
148.19	795.27
148.70	797.67
149.21	800.07
149.72	802.47
150.23	804.88
150.74	807.29
151.25	809.70
151.76	812.12
152.28	814.54
152.79	816.96
153.31	819.39
153.83	821.82
154.34	824.26
154.86	826.70
155.38	829.14
155.90	831.59
156.43	834.03
156.95	836.49
157.47	838.94
158.00	841.40
158.52	843.87
159.05	846.34
159.58	848.81
160.11	851.28
160.63	853.76
161.17	856.24
161.70	858.72
162.23	861.21
162.76	863.70
163.30	866.20
163.83	868.70
164.37	871.20
164.91	873.71
165.44	876.22
165.98	878.73
166.52	881.25
167.06	883.77
167.61	886.29
168.15	888.82
168.69	891.35
169.24	893.88
169.78	896.42
170.33	898.96
170.88	901.51
171.43	904.05
171.98	906.61
172.53	909.16
173.08	911.72
173.63	914.28
174.19	916.85
174.74	919.42
175.30	921.99
175.85	924.57
176.41	927.15
176.97	929.73
177.53	932.32
178.09	934.91
178.65	937.50
179.21	940.10
179.78	942.70
180.34	945.30
180.91	947.91
181.47	950.52
182.04	953.14
182.61	955.76
183.18	958.38
183.75	961.00
184.32	963.63
184.89	966.26
185.46	968.90
186.04	971.54
186.61	974.18
187.19	976.83
187.77	979.48
188.34	982.13
188.92	984.79
189.50	987.45
190.08	990.11
190.66	992.78
191.25	995.45
191.83	998.12
192.42	1000.80
193.00	1003.48
193.59	1006.16
194.18	1008.85
194.76	1011.54
195.35	1014.24
195.94	1016.94
196.54	1019.64
197.13	1022.34
197.72	1025.05
198.32	1027.76
198.91	1030.48
199.51	1033.20
200.11	1035.92
200.70	1038.64
201.30	1041.37
201.90	1044.11
202.50	1046.84
203.11	1049.58
203.71	1052.32
204.31	1055.07
204.92	1057.82
205.52	1060.57
206.13	1063.33
206.74	1066.09
207.35	1068.85
207.96	1071.62
208.57	1074.39
209.18	1077.16
209.79	1079.94
210.41	1082.72
211.02	1085.50
211.64	1088.29
212.25	1091.08
212.87	1093.88
213.49	1096.67
214.11	1099.47
214.73	1102.28
215.35	1105.09
215.98	1107.90
216.60	1110.71
217.22	1113.53
217.85	1116.35
218.47	1119.17
219.10	1122.00
219.73	1124.83
220.36	1127.67
220.99	1130.51
221.62	1133.35
222.25	1136.19
222.89	1139.04
223.52	1141.89
224.16	1144.75
224.79	1147.60
225.43	1150.47
226.07	1153.33
226.71	1156.20
227.35	1159.07
227.99	1161.95
228.63	1164.82
229.27	1167.71
229.91	1170.59
230.56	1173.48
231.20	1176.37
231.85	1179.26
232.50	1182.16
233.15	1185.06
233.80	1187.97
234.45	1190.88
235.10	1193.79
235.75	1196.70
236.40	1199.62
237.06	1202.54
237.71	1205.47
238.37	1208.40
239.03	1211.33
239.69	1214.26
240.34	1217.20
241.00	1220.14
241.67	1223.09
242.33	1226.03
242.99	1228.99
243.65	1231.94
244.32	1234.90
244.99	1237.86
245.65	1240.82
246.32	1243.79
246.99	1246.76
247.66	1249.74
248.33	1252.71
249.00	1255.70
249.67	1258.68
250.35	1261.67
251.02	1264.66
251.70	1267.65
252.37	1270.65
253.05	1273.65
253.73	1276.65
254.41	1279.66
255.09	1282.67
255.77	1285.68
256.45	1288.70
257.13	1291.72
257.82	1294.74
258.50	1297.77
259.19	1300.80
259.88	1303.83
260.56	1306.87
261.25	1309.91
261.94	1312.95
262.63	1315.99
263.33	1319.04
264.02	1322.10
264.71	1325.15
265.41	1328.21
266.10	1331.27
266.80	1334.34
267.50	1337.41
268.19	1340.48
268.89	1343.55
269.59	1346.63
270.29	1349.71
271.00	1352.80
271.70	1355.88
272.40	1358.97
273.11	1362.07
273.81	1365.16
274.52	1368.26
275.23	1371.37
275.94	1374.48
276.65	1377.58
277.36	1380.70
278.07	1383.81
278.78	1386.93
279.50	1390.06
280.21	1393.18
280.93	1396.31
281.64	1399.44
282.36	1402.58
283.08	1405.72
283.80	1408.86
284.52	1412.00
285.24	1415.15
285.96	1418.30
286.68	1421.46
287.41	1424.61
288.13	1427.77
288.86	1430.94
289.59	1434.10
290.31	1437.27
291.04	1440.45
291.77	1443.62
292.50	1446.80
293.23	1449.98
293.97	1453.17
294.70	1456.36
295.43	1459.55
296.17	1462.74
296.91	1465.94
297.64	1469.14
298.38	1472.35
299.12	1475.55
299.86	1478.76
300.60	1481.98
301.34	1485.19
302.09	1488.41
302.83	1491.64
303.57	1494.86
304.32	1498.09
305.07	1501.32
305.81	1504.56
306.56	1507.80
307.31	1511.04
308.06	1514.28
308.81	1517.53
309.56	1520.78
310.32	1524.03
311.07	1527.29
311.83	1530.55
312.58	1533.81
313.34	1537.08
314.10	1540.35
314.86	1543.62
315.62	1546.89
316.38	1550.17
317.14	1553.45
317.90	1556.73
318.66	1560.02
319.43	1563.31
320.19	1566.61
320.96	1569.90
321.73	1573.20
322.50	1576.50
323.26	1579.81
324.03	1583.12
324.80	1586.43
325.58	1589.74
326.35	1593.06
327.12	1596.38
327.90	1599.70
328.67	1603.03
329.45	1606.36
330.23	1609.69
331.01	1613.03
331.78	1616.37
332.57	1619.71
333.35	1623.05
334.13	1626.40
334.91	1629.75
335.70	1633.10
336.48	1636.46
337.27	1639.82
338.05	1643.18
338.84	1646.55
339.63	1649.92
340.42	1653.29
341.21	1656.66
342.00	1660.04
342.79	1663.42
343.59	1666.80
344.38	1670.19
345.18	1673.58
345.97	1676.97
346.77	1680.37
347.57	1683.77
348.37	1687.17
349.17	1690.57
349.97	1693.98
350.77	1697.39
351.57	1700.81
352.37	1704.22
353.18	1707.64
353.98	1711.07
354.79	1714.49
355.60	1717.92
356.41	1721.35
357.21	1724.79
358.02	1728.22
358.84	1731.66
359.65	1735.11
360.46	1738.55
361.27	1742.00
362.09	1745.45
362.90	1748.91
363.72	1752.37
364.54	1755.83
365.36	1759.29
366.18	1762.76
367.00	1766.23
367.82	1769.70
368.64	1773.18
369.46	1776.66
370.29	1780.14
371.11	1783.63
371.94	1787.11
372.77	1790.60
373.59	1794.10
374.42	1797.59
375.25	1801.09
376.08	1804.60
376.91	1808.10
377.75	1811.61
378.58	1815.12
379.41	1818.64
380.25	1822.15
381.08	1825.67
381.92	1829.20
382.76	1832.72
383.60	1836.25
384.44	1839.78
385.28	1843.32
386.12	1846.86
386.96	1850.40
387.81	1853.94
388.65	1857.49
389.50	1861.04
390.34	1864.59
391.19	1868.14
392.04	1871.70
392.89	1875.26
393.74	1878.83
394.59	1882.40
395.44	1885.97
396.29	1889.54
397.15	1893.11
398.00	1896.69
398.86	1900.27
399.72	1903.86
400.57	1907.45
401.43	1911.04
402.29	1914.63
403.15	1918.23
404.01	1921.83
404.87	1925.43
405.74	1929.03
406.60	1932.64
407.47	1936.25
408.33	1939.86
409.20	1943.48
410.07	1947.10
410.94	1950.72
411.81	1954.35
412.68	1957.98
413.55	1961.61
414.42	1965.24
415.29	1968.88
416.17	1972.52
417.04	1976.16
417.92	1979.81
418.80	1983.46
419.67	1987.11
420.55	1990.76
421.43	1994.42
422.31	1998.08
423.20	2001.74
424.08	2005.41
424.96	2009.08
425.85	2012.75
426.73	2016.42
427.62	2020.10
428.51	2023.78
429.39	2027.46
430.28	2031.15
431.17	2034.84
432.07	2038.53
432.96	2042.23
433.85	2045.93
434.74	2049.63
435.64	2053.33
436.54	2057.04
437.43	2060.75
438.33	2064.46
439.23	2068.17
440.13	2071.89
441.03	2075.61
441.93	2079.34
442.83	2083.06
443.74	2086.79
444.64	2090.53
445.55	2094.26
446.45	2098.00
447.36	2101.74
448.27	2105.49
449.18	2109.23
450.09	2112.98
451.00	2116.74
451.91	2120.49
452.82	2124.25
453.73	2128.01
454.65	2131.78
455.56	2135.54
456.48	2139.31
457.40	2143.09
458.32	2146.86
459.24	2150.64
460.16	2154.42
461.08	2158.21
462.00	2162.00
462.92	2165.79
463.85	2169.58
464.77	2173.38
465.70	2177.18
466.62	2180.98
467.55	2184.78
468.48	2188.59
469.41	2192.40
470.34	2196.22
471.27	2200.03
472.21	2203.85
473.14	2207.67
474.07	2211.50
475.01	2215.33
475.95	2219.16
476.88	2222.99
477.82	2226.83
478.76	2230.67
479.70	2234.51
480.64	2238.36
481.58	2242.21
482.53	2246.06
483.47	2249.91
484.41	2253.77
485.36	2257.63
486.31	2261.49
487.25	2265.36
488.20	2269.22
489.15	2273.10
490.10	2276.97
491.05	2280.85
492.01	2284.73
492.96	2288.61
493.92	2292.50
494.87	2296.38
495.83	2300.28
496.78	2304.17
497.74	2308.07
498.70	2311.97
499.66	2315.87
500.62	2319.78
501.58	2323.69
502.55	2327.60
503.51	2331.51
504.47	2335.43
505.44	2339.35
506.41	2343.27
507.37	2347.20
508.34	2351.13
509.31	2355.06
510.28	2358.99
511.25	2362.93
512.23	2366.87
513.20	2370.82
514.17	2374.76
515.15	2378.71
516.13	2382.66
517.10	2386.62
518.08	2390.58
519.06	2394.54
520.04	2398.50
521.02	2402.47
522.00	2406.44
522.99	2410.41
523.97	2414.38
524.95	2418.36
525.94	2422.34
526.93	2426.32
527.91	2430.31
528.90	2434.30
529.89	2438.29
530.88	2442.29
531.87	2446.28
532.87	2450.29
533.86	2454.29
534.85	2458.30
535.85	2462.30
536.84	2466.32
537.84	2470.33
538.84	2474.35
539.84	2478.37
540.84	2482.39
541.84	2486.42
542.84	2490.45
543.84	2494.48
544.85	2498.52
545.85	2502.56
546.86	2506.60
547.87	2510.64
548.87	2514.69
549.88	2518.74
550.89	2522.79
551.90	2526.84
552.91	2530.90
553.93	2534.96
554.94	2539.03
555.95	2543.09
556.97	2547.16
557.98	2551.23
559.00	2555.31
560.02	2559.39
561.04	2563.47
562.06	2567.55
563.08	2571.64
564.10	2575.73
565.13	2579.82
566.15	2583.92
567.17	2588.01
568.20	2592.11
569.23	2596.22
570.25	2600.32
571.28	2604.43
572.31	2608.55
573.34	2612.66
574.38	2616.78
575.41	2620.90
576.44	2625.02
577.48	2629.15
578.51	2633.28
579.55	2637.41
580.58	2641.55
581.62	2645.69
582.66	2649.83
583.70	2653.97
584.74	2658.12
585.79	2662.27
586.83	2666.42
587.87	2670.57
588.92	2674.73
589.96	2678.89
591.01	2683.06
592.06	2687.22
593.11	2691.39
594.16	2695.56
595.21	2699.74
596.26	2703.92
597.31	2708.10
598.37	2712.28
599.42	2716.47
600.48	2720.66
601.53	2724.85
602.59	2729.04
603.65	2733.24
604.71	2737.44
605.77	2741.65
606.83	2745.85
607.89	2750.06
608.96	2754.27
610.02	2758.49
611.09	2762.71
612.15	2766.93
613.22	2771.15
614.29	2775.38
615.36	2779.60
616.43	2783.84
617.50	2788.07
618.57	2792.31
619.64	2796.55
620.72	2800.79
621.79	2805.04
622.87	2809.29
623.95	2813.54
625.02	2817.79
626.10	2822.05
627.18	2826.31
628.26	2830.57
629.34	2834.84
630.43	2839.11
631.51	2843.38
632.60	2847.65
633.68	2851.93
634.77	2856.21
635.85	2860.49
636.94	2864.78
638.03	2869.07
639.12	2873.36
640.21	2877.65
641.31	2881.95
642.40	2886.25
643.49	2890.55
644.59	2894.86
645.69	2899.17
646.78	2903.48
647.88	2907.79
648.98	2912.11
650.08	2916.43
651.18	2920.75
652.28	2925.08
653.39	2929.40
654.49	2933.74
655.60	2938.07
656.70	2942.41
657.81	2946.74
658.92	2951.09
660.02	2955.43
661.13	2959.78
662.24	2964.13
663.36	2968.48
664.47	2972.84
665.58	2977.20
666.70	2981.56
667.81	2985.92
668.93	2990.29
670.05	2994.66
671.17	2999.03
672.29	3003.41
673.41	3007.79
674.53	3012.17
675.65	3016.55
676.77	3020.94
677.90	3025.33
679.02	3029.72
680.15	3034.12
681.28	3038.52
682.40	3042.92
683.53	3047.32
684.66	3051.73
685.79	3056.14
686.93	3060.55
688.06	3064.97
689.19	3069.38
690.33	3073.81
691.46	3078.23
692.60	3082.66
693.74	3087.08
694.88	3091.52
696.02	3095.95
697.16	3100.39
698.30	3104.83
699.44	3109.27
700.59	3113.72
701.73	3118.17
702.88	3122.62
704.02	3127.07
705.17	3131.53
706.32	3135.99
707.47	3140.45
708.62	3144.92
709.77	3149.38
710.92	3153.86
712.08	3158.33
713.23	3162.81
714.39	3167.29
715.54	3171.77
716.70	3176.25
717.86	3180.74
719.02	3185.23
720.18	3189.72
721.34	3194.22
722.50	3198.72
723.66	3203.22
724.83	3207.73
725.99	3212.23
727.16	3216.74
728.33	3221.26
729.49	3225.77
730.66	3230.29
731.83	3234.81
733.00	3239.34
734.18	3243.86
735.35	3248.39
736.52	3252.93
737.70	3257.46
738.87	3262.00
740.05	3266.54
741.23	3271.08
742.41	3275.63
743.59	3280.18
744.77	3284.73
745.95	3289.29
747.13	3293.84
748.32	3298.40
749.50	3302.97
750.69	3307.53
751.87	3312.10
753.06	3316.67
754.25	3321.25
755.44	3325.82
756.63	3330.40
757.82	3334.99
759.01	3339.57
760.21	3344.16
761.40	3348.75
762.60	3353.35
763.79	3357.94
764.99	3362.54
766.19	3367.14
767.39	3371.75
768.59	3376.36
769.79	3380.97
770.99	3385.58
772.19	3390.20
773.40	3394.82
774.60	3399.44
775.81	3404.06
777.02	3408.69
778.23	3413.32
779.43	3417.95
780.64	3422.59
781.86	3427.23
783.07	3431.87
784.28	3436.51
785.50	3441.16
786.71	3445.81
787.93	3450.46
789.14	3455.11
790.36	3459.77
791.58	3464.43
792.80	3469.10
794.02	3473.76
795.24	3478.43
796.47	3483.10
797.69	3487.78
798.91	3492.46
800.14	3497.14
801.37	3501.82
802.60	3506.51
803.82	3511.19
805.05	3515.89
806.28	3520.58
807.52	3525.28
808.75	3529.98
809.98	3534.68
811.22	3539.38
812.45	3544.09
813.69	3548.80
814.93	3553.52
816.17	3558.23
817.41	3562.95
818.65	3567.67
819.89	3572.40
821.13	3577.13
822.38	3581.86
823.62	3586.59
824.87	3591.33
826.11	3596.06
827.36	3600.81
828.61	3605.55
829.86	3610.30
831.11	3615.05
832.36	3619.80
833.61	3624.56
834.87	3629.31
836.12	3634.07
837.38	3638.84
838.63	3643.60
839.89	3648.37
841.15	3653.15
842.41	3657.92
843.67	3662.70
844.93	3667.48
846.19	3672.26
847.46	3677.05
848.72	3681.84
849.99	3686.63
851.25	3691.42
852.52	3696.22
853.79	3701.02
855.06	3705.82
856.33	3710.63
857.60	3715.44
858.87	3720.25
860.15	3725.06
861.42	3729.88
862.70	3734.70
