t(c)	x(m)
0.000	0.00
0.010	0.01
0.020	0.02
0.030	0.03
0.040	0.04
0.050	0.05
0.060	0.06
0.070	0.07
0.080	0.08
0.090	0.09
0.100	0.11
0.110	0.12
0.120	0.13
0.130	0.15
0.140	0.16
0.150	0.17
0.160	0.19
0.170	0.20
0.180	0.22
0.190	0.24
0.200	0.25
0.210	0.27
0.220	0.29
0.230	0.30
0.240	0.32
0.250	0.34
0.260	0.36
0.270	0.38
0.280	0.40
0.290	0.42
0.300	0.44
0.310	0.46
0.320	0.48
0.330	0.50
0.340	0.52
0.350	0.54
0.360	0.57
0.370	0.59
0.380	0.61
0.390	0.64
0.400	0.66
0.410	0.68
0.420	0.71
0.430	0.74
0.440	0.76
0.450	0.79
0.460	0.81
0.470	0.84
0.480	0.87
0.490	0.90
0.500	0.92
0.510	0.95
0.520	0.98
0.530	1.01
0.540	1.04
0.550	1.07
0.560	1.10
0.570	1.13
0.580	1.16
0.590	1.19
0.600	1.23
0.610	1.26
0.620	1.29
0.630	1.32
0.640	1.36
0.650	1.39
0.660	1.42
0.670	1.46
0.680	1.49
0.690	1.53
0.700	1.57
0.710	1.60
0.720	1.64
0.730	1.68
0.740	1.71
0.750	1.75
0.760	1.79
0.770	1.83
0.780	1.87
0.790	1.91
0.800	1.95
0.810	1.99
0.820	2.03
0.830	2.07
0.840	2.11
0.850	2.15
0.860	2.19
0.870	2.24
0.880	2.28
0.890	2.32
0.900	2.37
0.910	2.41
0.920	2.46
0.930	2.50
0.940	2.55
0.950	2.59
0.960	2.64
0.970	2.68
0.980	2.73
0.990	2.78
1.000	2.83
1.010	2.87
1.020	2.92
1.030	2.97
1.040	3.02
1.050	3.07
1.060	3.12
1.070	3.17
1.080	3.22
1.090	3.27
1.100	3.32
1.110	3.38
1.120	3.43
1.130	3.48
1.140	3.53
1.150	3.59
1.160	3.64
1.170	3.70
1.180	3.75
1.190	3.81
1.200	3.86
1.210	3.92
1.220	3.97
1.230	4.03
1.240	4.09
1.250	4.15
1.260	4.20
1.270	4.26
1.280	4.32
1.290	4.38
1.300	4.44
1.310	4.50
1.320	4.56
1.330	4.62
1.340	4.68
1.350	4.74
1.360	4.81
1.370	4.87
1.380	4.93
1.390	4.99
1.400	5.06
1.410	5.12
1.420	5.19
1.430	5.25
1.440	5.31
1.450	5.38
1.460	5.45
1.470	5.51
1.480	5.58
1.490	5.65
1.500	5.71
1.510	5.78
1.520	5.85
1.530	5.92
1.540	5.99
1.550	6.06
1.560	6.13
1.570	6.20
1.580	6.27
1.590	6.34
1.600	6.41
1.610	6.48
1.620	6.55
1.630	6.63
1.640	6.70
1.650	6.77
1.660	6.85
1.670	6.92
1.680	7.00
1.690	7.07
1.700	7.15
1.710	7.22
1.720	7.30
1.730	7.37
1.740	7.45
1.750	7.53
1.760	7.61
1.770	7.69
1.780	7.76
1.790	7.84
1.800	7.92
1.810	8.00
1.820	8.08
1.830	8.16
1.840	8.24
1.850	8.33
1.860	8.41
1.870	8.49
1.880	8.57
1.890	8.65
1.900	8.74
1.910	8.82
1.920	8.91
1.930	8.99
1.940	9.08
1.950	9.16
1.960	9.25
1.970	9.33
1.980	9.42
1.990	9.51
2.000	9.59
2.010	9.68
2.020	9.77
2.030	9.86
2.040	9.95
2.050	10.04
2.060	10.13
2.070	10.22
2.080	10.31
2.090	10.40
2.100	10.49
2.110	10.58
2.120	10.67
2.130	10.77
2.140	10.86
2.150	10.95
2.160	11.05
2.170	11.14
2.180	11.23
2.190	11.33
2.200	11.42
2.210	11.52
2.220	11.62
2.230	11.71
2.240	11.81
2.250	11.91
2.260	12.00
2.270	12.10
2.280	12.20
2.290	12.30
2.300	12.40
2.310	12.50
2.320	12.60
2.330	12.70
2.340	12.80
2.350	12.90
2.360	13.00
2.370	13.11
2.380	13.21
2.390	13.31
2.400	13.42
2.410	13.52
2.420	13.62
2.430	13.73
2.440	13.83
2.450	13.94
2.460	14.04
2.470	14.15
2.480	14.26
2.490	14.36
2.500	14.47
2.510	14.58
2.520	14.69
2.530	14.80
2.540	14.90
2.550	15.01
2.560	15.12
2.570	15.23
2.580	15.34
2.590	15.45
2.600	15.57
2.610	15.68
2.620	15.79
2.630	15.90
2.640	16.02
2.650	16.13
2.660	16.24
2.670	16.36
2.680	16.47
2.690	16.59
2.700	16.70
2.710	16.82
2.720	16.93
2.730	17.05
2.740	17.17
2.750	17.28
2.760	17.40
2.770	17.52
2.780	17.64
2.790	17.76
2.800	17.88
2.810	18.00
2.820	18.12
2.830	18.24
2.840	18.36
2.850	18.48
2.860	18.60
2.870	18.72
2.880	18.85
2.890	18.97
2.900	19.09
2.910	19.22
2.920	19.34
2.930	19.47
2.940	19.59
2.950	19.72
2.960	19.84
2.970	19.97
2.980	20.09
2.990	20.22
3.000	20.35
3.010	20.48
3.020	20.61
3.030	20.73
3.040	20.86
3.050	20.99
3.060	21.12
3.070	21.25
3.080	21.38
3.090	21.51
3.100	21.65
3.110	21.78
3.120	21.91
3.130	22.04
3.140	22.18
3.150	22.31
3.160	22.44
3.170	22.58
3.180	22.71
3.190	22.85
3.200	22.98
3.210	23.12
3.220	23.25
3.230	23.39
3.240	23.53
3.250	23.67
3.260	23.80
3.270	23.94
3.280	24.08
3.290	24.22
3.300	24.36
3.310	24.50
3.320	24.64
3.330	24.78
3.340	24.92
3.350	25.06
3.360	25.20
3.370	25.35
3.380	25.49
3.390	25.63
3.400	25.78
3.410	25.92
3.420	26.06
3.430	26.21
3.440	26.35
3.450	26.50
3.460	26.65
3.470	26.79
3.480	26.94
3.490	27.09
3.500	27.23
3.510	27.38
3.520	27.53
3.530	27.68
3.540	27.83
3.550	27.98
3.560	28.13
3.570	28.28
3.580	28.43
3.590	28.58
3.600	28.73
3.610	28.88
3.620	29.04
3.630	29.19
3.640	29.34
3.650	29.50
3.660	29.65
3.670	29.80
3.680	29.96
3.690	30.11
3.700	30.27
3.710	30.43
3.720	30.58
3.730	30.74
3.740	30.90
3.750	31.05
3.760	31.21
3.770	31.37
3.780	31.53
3.790	31.69
3.800	31.85
3.810	32.01
3.820	32.17
3.830	32.33
3.840	32.49
3.850	32.65
3.860	32.82
3.870	32.98
3.880	33.14
3.890	33.30
3.900	33.47
3.910	33.63
3.920	33.80
3.930	33.96
3.940	34.13
3.950	34.29
3.960	34.46
3.970	34.63
3.980	34.79
3.990	34.96
4.000	35.13
4.010	35.30
4.020	35.46
4.030	35.63
4.040	35.80
4.050	35.97
4.060	36.14
4.070	36.31
4.080	36.48
4.090	36.66
4.100	36.83
4.110	37.00
4.120	37.17
4.130	37.35
4.140	37.52
4.150	37.69
4.160	37.87
4.170	38.04
4.180	38.22
4.190	38.39
4.200	38.57
4.210	38.74
4.220	38.92
4.230	39.10
4.240	39.28
4.250	39.45
4.260	39.63
4.270	39.81
4.280	39.99
4.290	40.17
4.300	40.35
4.310	40.53
4.320	40.71
4.330	40.89
4.340	41.07
4.350	41.26
4.360	41.44
4.370	41.62
4.380	41.80
4.390	41.99
4.400	42.17
4.410	42.36
4.420	42.54
4.430	42.73
4.440	42.91
4.450	43.10
4.460	43.28
4.470	43.47
4.480	43.66
4.490	43.85
4.500	44.03
4.510	44.22
4.520	44.41
4.530	44.60
4.540	44.79
4.550	44.98
4.560	45.17
4.570	45.36
4.580	45.55
4.590	45.74
4.600	45.94
4.610	46.13
4.620	46.32
4.630	46.51
4.640	46.71
4.650	46.90
4.660	47.10
4.670	47.29
4.680	47.49
4.690	47.68
4.700	47.88
4.710	48.08
4.720	48.27
4.730	48.47
4.740	48.67
4.750	48.87
4.760	49.07
4.770	49.26
4.780	49.46
4.790	49.66
4.800	49.86
4.810	50.06
4.820	50.27
4.830	50.47
4.840	50.67
4.850	50.87
4.860	51.07
4.870	51.28
4.880	51.48
4.890	51.68
4.900	51.89
4.910	52.09
4.920	52.30
4.930	52.50
4.940	52.71
4.950	52.92
4.960	53.12
4.970	53.33
4.980	53.54
4.990	53.74
5.000	53.95
5.010	54.16
5.020	54.37
5.030	54.58
5.040	54.79
5.050	55.00
5.060	55.21
5.070	55.42
5.080	55.63
5.090	55.85
5.100	56.06
5.110	56.27
5.120	56.48
5.130	56.70
5.140	56.91
5.150	57.13
5.160	57.34
5.170	57.56
5.180	57.77
5.190	57.99
5.200	58.21
5.210	58.42
5.220	58.64
5.230	58.86
5.240	59.07
5.250	59.29
5.260	59.51
5.270	59.73
5.280	59.95
5.290	60.17
5.300	60.39
5.310	60.61
5.320	60.83
5.330	61.06
5.340	61.28
5.350	61.50
5.360	61.72
5.370	61.95
5.380	62.17
5.390	62.39
5.400	62.62
5.410	62.84
5.420	63.07
5.430	63.29
5.440	63.52
5.450	63.75
5.460	63.97
5.470	64.20
5.480	64.43
5.490	64.66
5.500	64.89
5.510	65.12
5.520	65.34
5.530	65.57
5.540	65.80
5.550	66.03
5.560	66.27
5.570	66.50
5.580	66.73
5.590	66.96
5.600	67.19
5.610	67.43
5.620	67.66
5.630	67.89
5.640	68.13
5.650	68.36
5.660	68.60
5.670	68.83
5.680	69.07
5.690	69.31
5.700	69.54
5.710	69.78
5.720	70.02
5.730	70.25
5.740	70.49
5.750	70.73
5.760	70.97
5.770	71.21
5.780	71.45
5.790	71.69
5.800	71.93
5.810	72.17
5.820	72.41
5.830	72.65
5.840	72.90
5.850	73.14
5.860	73.38
5.870	73.62
5.880	73.87
5.890	74.11
5.900	74.36
5.910	74.60
5.920	74.85
5.930	75.09
5.940	75.34
5.950	75.59
5.960	75.83
5.970	76.08
5.980	76.33
5.990	76.58
6.000	76.83
6.010	77.07
6.020	77.32
6.030	77.57
6.040	77.82
6.050	78.07
6.060	78.33
6.070	78.58
6.080	78.83
6.090	79.08
6.100	79.33
6.110	79.59
6.120	79.84
6.130	80.09
6.140	80.35
6.150	80.60
6.160	80.86
6.170	81.11
6.180	81.37
6.190	81.62
6.200	81.88
6.210	82.14
6.220	82.39
6.230	82.65
6.240	82.91
6.250	83.17
6.260	83.43
6.270	83.69
6.280	83.95
6.290	84.21
6.300	84.47
6.310	84.73
6.320	84.99
6.330	85.25
6.340	85.51
6.350	85.78
6.360	86.04
6.370	86.30
6.380	86.57
6.390	86.83
6.400	87.09
6.410	87.36
6.420	87.62
6.430	87.89
6.440	88.16
6.450	88.42
6.460	88.69
6.470	88.96
6.480	89.22
6.490	89.49
6.500	89.76
6.510	90.03
6.520	90.30
6.530	90.57
6.540	90.84
6.550	91.11
6.560	91.38
6.570	91.65
6.580	91.92
6.590	92.19
6.600	92.47
6.610	92.74
6.620	93.01
6.630	93.28
6.640	93.56
6.650	93.83
6.660	94.11
6.670	94.38
6.680	94.66
6.690	94.93
6.700	95.21
6.710	95.49
6.720	95.76
6.730	96.04
6.740	96.32
6.750	96.60
6.760	96.88
6.770	97.15
6.780	97.43
6.790	97.71
6.800	97.99
6.810	98.27
6.820	98.56
6.830	98.84
6.840	99.12
6.850	99.40
6.860	99.68
6.870	99.97
6.880	100.25
6.890	100.53
6.900	100.82
6.910	101.10
6.920	101.39
6.930	101.67
6.940	101.96
6.950	102.24
6.960	102.53
6.970	102.81
6.980	103.10
6.990	103.39
7.000	103.68
7.010	103.97
7.020	104.25
7.030	104.54
7.040	104.83
7.050	105.12
7.060	105.41
7.070	105.70
7.080	105.99
7.090	106.29
7.100	106.58
7.110	106.87
7.120	107.16
7.130	107.45
7.140	107.75
7.150	108.04
7.160	108.34
7.170	108.63
7.180	108.92
7.190	109.22
7.200	109.51
7.210	109.81
7.220	110.11
7.230	110.40
7.240	110.70
7.250	111.00
7.260	111.30
7.270	111.59
7.280	111.89
7.290	112.19
7.300	112.49
7.310	112.79
7.320	113.09
7.330	113.39
7.340	113.69
7.350	113.99
7.360	114.30
7.370	114.60
7.380	114.90
7.390	115.20
7.400	115.51
7.410	115.81
7.420	116.11
7.430	116.42
7.440	116.72
7.450	117.03
7.460	117.33
7.470	117.64
7.480	117.94
7.490	118.25
7.500	118.56
7.510	118.86
7.520	119.17
7.530	119.48
7.540	119.79
7.550	120.10
7.560	120.41
7.570	120.72
7.580	121.03
7.590	121.34
7.600	121.65
7.610	121.96
7.620	122.27
7.630	122.58
7.640	122.89
7.650	123.21
7.660	123.52
7.670	123.83
7.680	124.15
7.690	124.46
7.700	124.77
7.710	125.09
7.720	125.40
7.730	125.72
7.740	126.04
7.750	126.35
7.760	126.67
7.770	126.99
7.780	127.30
7.790	127.62
7.800	127.94
7.810	128.26
7.820	128.58
7.830	128.89
7.840	129.21
7.850	129.53
7.860	129.85
7.870	130.18
7.880	130.50
7.890	130.82
7.900	131.14
7.910	131.46
7.920	131.78
7.930	132.11
7.940	132.43
7.950	132.75
7.960	133.08
7.970	133.40
7.980	133.73
7.990	134.05
8.000	134.38
8.010	134.70
8.020	135.03
8.030	135.36
8.040	135.68
8.050	136.01
8.060	136.34
8.070	136.67
8.080	136.99
8.090	137.32
8.100	137.65
8.110	137.98
8.120	138.31
8.130	138.64
8.140	138.97
8.150	139.30
8.160	139.63
8.170	139.96
8.180	140.30
8.190	140.63
8.200	140.96
8.210	141.29
8.220	141.63
8.230	141.96
8.240	142.30
8.250	142.63
8.260	142.96
8.270	143.30
8.280	143.63
8.290	143.97
8.300	144.31
8.310	144.64
8.320	144.98
8.330	145.32
8.340	145.66
8.350	145.99
8.360	146.33
8.370	146.67
8.380	147.01
8.390	147.35
8.400	147.69
8.410	148.03
8.420	148.37
8.430	148.71
8.440	149.05
8.450	149.39
8.460	149.73
8.470	150.08
8.480	150.42
8.490	150.76
8.500	151.10
8.510	151.45
8.520	151.79
8.530	152.14
8.540	152.48
8.550	152.83
8.560	153.17
8.570	153.52
8.580	153.86
8.590	154.21
8.600	154.56
8.610	154.90
8.620	155.25
8.630	155.60
8.640	155.95
8.650	156.29
8.660	156.64
8.670	156.99
8.680	157.34
8.690	157.69
8.700	158.04
8.710	158.39
8.720	158.74
8.730	159.09
8.740	159.45
8.750	159.80
8.760	160.15
8.770	160.50
8.780	160.86
8.790	161.21
8.800	161.56
8.810	161.92
8.820	162.27
8.830	162.62
8.840	162.98
8.850	163.33
8.860	163.69
8.870	164.05
8.880	164.40
8.890	164.76
8.900	165.12
8.910	165.47
8.920	165.83
8.930	166.19
8.940	166.55
8.950	166.91
8.960	167.26
8.970	167.62
8.980	167.98
8.990	168.34
9.000	168.70
9.010	169.06
9.020	169.43
9.030	169.79
9.040	170.15
9.050	170.51
9.060	170.87
9.070	171.24
9.080	171.60
9.090	171.96
9.100	172.32
9.110	172.69
9.120	173.05
9.130	173.42
9.140	173.78
9.150	174.15
9.160	174.51
9.170	174.88
9.180	175.25
9.190	175.61
9.200	175.98
9.210	176.35
9.220	176.71
9.230	177.08
9.240	177.45
9.250	177.82
9.260	178.19
9.270	178.56
9.280	178.93
9.290	179.30
9.300	179.67
9.310	180.04
9.320	180.41
9.330	180.78
9.340	181.15
9.350	181.52
9.360	181.89
9.370	182.27
9.380	182.64
9.390	183.01
9.400	183.38
9.410	183.76
9.420	184.13
9.430	184.51
9.440	184.88
9.450	185.26
9.460	185.63
9.470	186.01
9.480	186.38
9.490	186.76
9.500	187.14
9.510	187.51
9.520	187.89
9.530	188.27
9.540	188.65
9.550	189.02
9.560	189.40
9.570	189.78
9.580	190.16
9.590	190.54
9.600	190.92
9.610	191.30
9.620	191.68
9.630	192.06
9.640	192.44
9.650	192.83
9.660	193.21
9.670	193.59
9.680	193.97
9.690	194.35
9.700	194.74
9.710	195.12
9.720	195.50
9.730	195.89
9.740	196.27
9.750	196.66
9.760	197.04
9.770	197.43
9.780	197.81
9.790	198.20
9.800	198.59
9.810	198.97
9.820	199.36
9.830	199.75
9.840	200.13
9.850	200.52
9.860	200.91
9.870	201.30
9.880	201.69
9.890	202.08
9.900	202.47
9.910	202.86
9.920	203.25
9.930	203.64
9.940	204.03
9.950	204.42
9.960	204.81
9.970	205.20
9.980	205.59
9.990	205.99
10.000	206.38
10.010	206.77
10.020	207.16
10.030	207.56
10.040	207.95
10.050	208.35
10.060	208.74
10.070	209.13
10.080	209.53
10.090	209.93
10.100	210.32
10.110	210.72
10.120	211.11
10.130	211.51
10.140	211.91
10.150	212.30
10.160	212.70
10.170	213.10
10.180	213.50
10.190	213.90
10.200	214.30
10.210	214.70
10.220	215.10
10.230	215.50
10.240	215.90
10.250	216.30
10.260	216.70
10.270	217.10
10.280	217.50
10.290	217.90
10.300	218.30
10.310	218.71
10.320	219.11
10.330	219.51
10.340	219.91
10.350	220.32
10.360	220.72
10.370	221.13
10.380	221.53
10.390	221.94
10.400	222.34
10.410	222.75
10.420	223.15
10.430	223.56
10.440	223.96
10.450	224.37
10.460	224.78
10.470	225.19
10.480	225.59
10.490	226.00
10.500	226.41
10.510	226.82
10.520	227.23
10.530	227.64
10.540	228.05
10.550	228.46
10.560	228.87
10.570	229.28
10.580	229.69
10.590	230.10
10.600	230.51
10.610	230.92
10.620	231.33
10.630	231.75
10.640	232.16
10.650	232.57
10.660	232.99
10.670	233.40
10.680	233.81
10.690	234.23
10.700	234.64
10.710	235.06
10.720	235.47
10.730	235.89
10.740	236.30
10.750	236.72
10.760	237.14
10.770	237.55
10.780	237.97
10.790	238.39
10.800	238.81
10.810	239.22
10.820	239.64
10.830	240.06
10.840	240.48
10.850	240.90
10.860	241.32
10.870	241.74
10.880	242.16
10.890	242.58
10.900	243.00
10.910	243.42
10.920	243.84
10.930	244.26
10.940	244.69
10.950	245.11
10.960	245.53
10.970	245.95
10.980	246.38
10.990	246.80
11.000	247.23
11.010	247.65
11.020	248.07
11.030	248.50
11.040	248.92
11.050	249.35
11.060	249.78
11.070	250.20
11.080	250.63
11.090	251.05
11.100	251.48
11.110	251.91
11.120	252.34
11.130	252.76
11.140	253.19
11.150	253.62
11.160	254.05
11.170	254.48
11.180	254.91
11.190	255.34
11.200	255.77
11.210	256.20
11.220	256.63
11.230	257.06
11.240	257.49
11.250	257.92
11.260	258.36
11.270	258.79
11.280	259.22
11.290	259.65
11.300	260.09
11.310	260.52
11.320	260.95
11.330	261.39
11.340	261.82
11.350	262.26
11.360	262.69
11.370	263.13
11.380	263.56
11.390	264.00
11.400	264.44
11.410	264.87
11.420	265.31
11.430	265.75
11.440	266.18
11.450	266.62
11.460	267.06
11.470	267.50
11.480	267.94
11.490	268.38
11.500	268.82
11.510	269.26
11.520	269.70
11.530	270.14
11.540	270.58
11.550	271.02
11.560	271.46
11.570	271.90
11.580	272.34
11.590	272.78
11.600	273.23
11.610	273.67
11.620	274.11
11.630	274.56
11.640	275.00
11.650	275.44
11.660	275.89
11.670	276.33
11.680	276.78
11.690	277.22
11.700	277.67
11.710	278.11
11.720	278.56
11.730	279.01
11.740	279.45
11.750	279.90
11.760	280.35
11.770	280.80
11.780	281.24
11.790	281.69
11.800	282.14
11.810	282.59
11.820	283.04
11.830	283.49
11.840	283.94
11.850	284.39
11.860	284.84
11.870	285.29
11.880	285.74
11.890	286.19
11.900	286.64
11.910	287.09
11.920	287.55
11.930	288.00
11.940	288.45
11.950	288.91
11.960	289.36
11.970	289.81
11.980	290.27
11.990	290.72
12.000	291.18
12.010	291.63
12.020	292.09
12.030	292.54
12.040	293.00
12.050	293.45
12.060	293.91
12.070	294.37
12.080	294.82
12.090	295.28
12.100	295.74
12.110	296.20
12.120	296.66
12.130	297.11
12.140	297.57
12.150	298.03
12.160	298.49
12.170	298.95
12.180	299.41
12.190	299.87
12.200	300.33
12.210	300.80
12.220	301.26
12.230	301.72
12.240	302.18
12.250	302.64
12.260	303.11
12.270	303.57
12.280	304.03
12.290	304.49
12.300	304.96
12.310	305.42
12.320	305.89
12.330	306.35
12.340	306.82
12.350	307.28
12.360	307.75
12.370	308.21
12.380	308.68
12.390	309.15
12.400	309.61
12.410	310.08
12.420	310.55
12.430	311.02
12.440	311.48
12.450	311.95
12.460	312.42
12.470	312.89
12.480	313.36
12.490	313.83
12.500	314.30
12.510	314.77
12.520	315.24
12.530	315.71
12.540	316.18
12.550	316.65
12.560	317.12
12.570	317.60
12.580	318.07
12.590	318.54
12.600	319.01
12.610	319.49
12.620	319.96
12.630	320.43
12.640	320.91
12.650	321.38
12.660	321.86
12.670	322.33
12.680	322.81
12.690	323.28
12.700	323.76
12.710	324.24
12.720	324.71
12.730	325.19
12.740	325.67
12.750	326.14
12.760	326.62
12.770	327.10
12.780	327.58
12.790	328.06
12.800	328.54
12.810	329.01
12.820	329.49
12.830	329.97
12.840	330.45
12.850	330.93
12.860	331.41
12.870	331.90
12.880	332.38
12.890	332.86
12.900	333.34
12.910	333.82
12.920	334.31
12.930	334.79
12.940	335.27
12.950	335.75
12.960	336.24
12.970	336.72
12.980	337.21
12.990	337.69
13.000	338.18
13.010	338.66
13.020	339.15
13.030	339.63
13.040	340.12
13.050	340.60
13.060	341.09
13.070	341.58
13.080	342.07
13.090	342.55
13.100	343.04
13.110	343.53
13.120	344.02
13.130	344.51
13.140	345.00
13.150	345.48
13.160	345.97
13.170	346.46
13.180	346.95
13.190	347.44
13.200	347.94
13.210	348.43
13.220	348.92
13.230	349.41
13.240	349.90
13.250	350.39
13.260	350.89
13.270	351.38
13.280	351.87
13.290	352.37
13.300	352.86
13.310	353.35
13.320	353.85
13.330	354.34
13.340	354.84
13.350	355.33
13.360	355.83
13.370	356.33
13.380	356.82
13.390	357.32
13.400	357.81
13.410	358.31
13.420	358.81
13.430	359.31
13.440	359.80
13.450	360.30
13.460	360.80
13.470	361.30
13.480	361.80
13.490	362.30
13.500	362.80
13.510	363.30
13.520	363.80
13.530	364.30
13.540	364.80
13.550	365.30
13.560	365.80
13.570	366.30
13.580	366.81
13.590	367.31
13.600	367.81
13.610	368.31
13.620	368.82
13.630	369.32
13.640	369.83
13.650	370.33
13.660	370.83
13.670	371.34
13.680	371.84
13.690	372.35
13.700	372.85
13.710	373.36
13.720	373.87
13.730	374.37
13.740	374.88
13.750	375.39
13.760	375.89
13.770	376.40
13.780	376.91
13.790	377.42
13.800	377.93
13.810	378.44
13.820	378.94
13.830	379.45
13.840	379.96
13.850	380.47
13.860	380.98
13.870	381.50
13.880	382.01
13.890	382.52
13.900	383.03
13.910	383.54
13.920	384.05
13.930	384.57
13.940	385.08
13.950	385.59
13.960	386.10
13.970	386.62
13.980	387.13
13.990	387.65
14.000	388.16
14.010	388.67
14.020	389.19
14.030	389.71
14.040	390.22
14.050	390.74
14.060	391.25
14.070	391.77
14.080	392.29
14.090	392.80
14.100	393.32
14.110	393.84
14.120	394.36
14.130	394.88
14.140	395.39
14.150	395.91
14.160	396.43
14.170	396.95
14.180	397.47
14.190	397.99
14.200	398.51
14.210	399.03
14.220	399.55
14.230	400.07
14.240	400.60
14.250	401.12
14.260	401.64
14.270	402.16
14.280	402.68
14.290	403.21
14.300	403.73
14.310	404.25
14.320	404.78
14.330	405.30
14.340	405.83
14.350	406.35
14.360	406.88
14.370	407.40
14.380	407.93
14.390	408.45
14.400	408.98
14.410	409.51
14.420	410.03
14.430	410.56
14.440	411.09
14.450	411.62
14.460	412.14
14.470	412.67
14.480	413.20
14.490	413.73
14.500	414.26
14.510	414.79
14.520	415.32
14.530	415.85
14.540	416.38
14.550	416.91
14.560	417.44
14.570	417.97
14.580	418.50
14.590	419.03
14.600	419.57
14.610	420.10
14.620	420.63
14.630	421.16
14.640	421.70
14.650	422.23
14.660	422.77
14.670	423.30
14.680	423.83
14.690	424.37
14.700	424.90
14.710	425.44
14.720	425.98
14.730	426.51
14.740	427.05
14.750	427.58
14.760	428.12
14.770	428.66
14.780	429.20
14.790	429.73
14.800	430.27
14.810	430.81
14.820	431.35
14.830	431.89
14.840	432.43
14.850	432.97
14.860	433.50
14.870	434.04
14.880	434.59
14.890	435.13
14.900	435.67
14.910	436.21
14.920	436.75
14.930	437.29
14.940	437.83
14.950	438.38
14.960	438.92
14.970	439.46
14.980	440.00
14.990	440.55
15.000	441.09
15.010	441.64
15.020	442.18
15.030	442.73
15.040	443.27
15.050	443.82
15.060	444.36
15.070	444.91
15.080	445.45
15.090	446.00
15.100	446.55
15.110	447.09
15.120	447.64
15.130	448.19
15.140	448.74
15.150	449.29
15.160	449.83
15.170	450.38
15.180	450.93
15.190	451.48
15.200	452.03
15.210	452.58
15.220	453.13
15.230	453.68
15.240	454.23
15.250	454.78
15.260	455.34
15.270	455.89
15.280	456.44
15.290	456.99
15.300	457.55
15.310	458.10
15.320	458.65
15.330	459.20
15.340	459.76
15.350	460.31
15.360	460.87
15.370	461.42
15.380	461.98
15.390	462.53
15.400	463.09
15.410	463.64
15.420	464.20
15.430	464.76
15.440	465.31
15.450	465.87
15.460	466.43
15.470	466.99
15.480	467.54
15.490	468.10
15.500	468.66
15.510	469.22
15.520	469.78
15.530	470.34
15.540	470.90
15.550	471.46
15.560	472.02
15.570	472.58
15.580	473.14
15.590	473.70
15.600	474.26
15.610	474.82
15.620	475.39
