t(c)	x(m)
0.000	0.00
0.010	0.01
0.020	0.02
0.030	0.03
0.040	0.04
0.050	0.05
0.060	0.06
0.070	0.07
0.080	0.08
0.090	0.09
0.100	0.11
0.110	0.12
0.120	0.13
0.130	0.15
0.140	0.16
0.150	0.18
0.160	0.19
0.170	0.21
0.180	0.22
0.190	0.24
0.200	0.26
0.210	0.27
0.220	0.29
0.230	0.31
0.240	0.33
0.250	0.35
0.260	0.37
0.270	0.39
0.280	0.41
0.290	0.43
0.300	0.45
0.310	0.47
0.320	0.50
0.330	0.52
0.340	0.54
0.350	0.57
0.360	0.59
0.370	0.62
0.380	0.64
0.390	0.67
0.400	0.69
0.410	0.72
0.420	0.75
0.430	0.78
0.440	0.80
0.450	0.83
0.460	0.86
0.470	0.89
0.480	0.92
0.490	0.95
0.500	0.99
0.510	1.02
0.520	1.05
0.530	1.08
0.540	1.12
0.550	1.15
0.560	1.19
0.570	1.22
0.580	1.26
0.590	1.29
0.600	1.33
0.610	1.37
0.620	1.41
0.630	1.44
0.640	1.48
0.650	1.52
0.660	1.56
0.670	1.60
0.680	1.64
0.690	1.69
0.700	1.73
0.710	1.77
0.720	1.81
0.730	1.86
0.740	1.90
0.750	1.95
0.760	1.99
0.770	2.04
0.780	2.09
0.790	2.13
0.800	2.18
0.810	2.23
0.820	2.28
0.830	2.33
0.840	2.38
0.850	2.43
0.860	2.48
0.870	2.53
0.880	2.59
0.890	2.64
0.900	2.69
0.910	2.75
0.920	2.80
0.930	2.86
0.940	2.91
0.950	2.97
0.960	3.03
0.970	3.08
0.980	3.14
0.990	3.20
1.000	3.26
1.010	3.32
1.020	3.38
1.030	3.44
1.040	3.51
1.050	3.57
1.060	3.63
1.070	3.70
1.080	3.76
1.090	3.83
1.100	3.89
1.110	3.96
1.120	4.02
1.130	4.09
1.140	4.16
1.150	4.23
1.160	4.30
1.170	4.37
1.180	4.44
1.190	4.51
1.200	4.58
1.210	4.65
1.220	4.73
1.230	4.80
1.240	4.88
1.250	4.95
1.260	5.03
1.270	5.10
1.280	5.18
1.290	5.26
1.300	5.33
1.310	5.41
1.320	5.49
1.330	5.57
1.340	5.65
1.350	5.74
1.360	5.82
1.370	5.90
1.380	5.98
1.390	6.07
1.400	6.15
1.410	6.24
1.420	6.32
1.430	6.41
1.440	6.50
1.450	6.58
1.460	6.67
1.470	6.76
1.480	6.85
1.490	6.94
1.500	7.03
1.510	7.13
1.520	7.22
1.530	7.31
1.540	7.40
1.550	7.50
1.560	7.59
1.570	7.69
1.580	7.79
1.590	7.88
1.600	7.98
1.610	8.08
1.620	8.18
1.630	8.28
1.640	8.38
1.650	8.48
1.660	8.58
1.670	8.68
1.680	8.79
1.690	8.89
1.700	9.00
1.710	9.10
1.720	9.21
1.730	9.31
1.740	9.42
1.750	9.53
1.760	9.64
1.770	9.75
1.780	9.86
1.790	9.97
1.800	10.08
1.810	10.19
1.820	10.30
1.830	10.42
1.840	10.53
1.850	10.65
1.860	10.76
1.870	10.88
1.880	11.00
1.890	11.11
1.900	11.23
1.910	11.35
1.920	11.47
1.930	11.59
1.940	11.71
1.950	11.84
1.960	11.96
1.970	12.08
1.980	12.21
1.990	12.33
2.000	12.46
2.010	12.58
2.020	12.71
2.030	12.84
2.040	12.96
2.050	13.09
2.060	13.22
2.070	13.35
2.080	13.48
2.090	13.62
2.100	13.75
2.110	13.88
2.120	14.02
2.130	14.15
2.140	14.29
2.150	14.42
2.160	14.56
2.170	14.70
2.180	14.84
2.190	14.98
2.200	15.12
2.210	15.26
2.220	15.40
2.230	15.54
2.240	15.68
2.250	15.83
2.260	15.97
2.270	16.11
2.280	16.26
2.290	16.41
2.300	16.55
2.310	16.70
2.320	16.85
2.330	17.00
2.340	17.15
2.350	17.30
2.360	17.45
2.370	17.61
2.380	17.76
2.390	17.91
2.400	18.07
2.410	18.22
2.420	18.38
2.430	18.54
2.440	18.69
2.450	18.85
2.460	19.01
2.470	19.17
2.480	19.33
2.490	19.49
2.500	19.66
2.510	19.82
2.520	19.98
2.530	20.15
2.540	20.31
2.550	20.48
2.560	20.64
2.570	20.81
2.580	20.98
2.590	21.15
2.600	21.32
2.610	21.49
2.620	21.66
2.630	21.83
2.640	22.00
2.650	22.18
2.660	22.35
2.670	22.53
2.680	22.70
2.690	22.88
2.700	23.06
2.710	23.24
2.720	23.41
2.730	23.59
2.740	23.78
2.750	23.96
2.760	24.14
2.770	24.32
2.780	24.50
2.790	24.69
2.800	24.87
2.810	25.06
2.820	25.25
2.830	25.43
2.840	25.62
2.850	25.81
2.860	26.00
2.870	26.19
2.880	26.38
2.890	26.58
2.900	26.77
2.910	26.96
2.920	27.16
2.930	27.35
2.940	27.55
2.950	27.75
2.960	27.94
2.970	28.14
2.980	28.34
2.990	28.54
3.000	28.74
3.010	28.94
3.020	29.15
3.030	29.35
3.040	29.55
3.050	29.76
3.060	29.96
3.070	30.17
3.080	30.38
3.090	30.59
3.100	30.80
3.110	31.00
3.120	31.22
3.130	31.43
3.140	31.64
3.150	31.85
3.160	32.07
3.170	32.28
3.180	32.50
3.190	32.71
3.200	32.93
3.210	33.15
3.220	33.36
3.230	33.58
3.240	33.80
3.250	34.02
3.260	34.25
3.270	34.47
3.280	34.69
3.290	34.92
3.300	35.14
3.310	35.37
3.320	35.59
3.330	35.82
3.340	36.05
3.350	36.28
3.360	36.51
3.370	36.74
3.380	36.97
3.390	37.20
3.400	37.44
3.410	37.67
3.420	37.91
3.430	38.14
3.440	38.38
3.450	38.62
3.460	38.85
3.470	39.09
3.480	39.33
3.490	39.57
3.500	39.82
3.510	40.06
3.520	40.30
3.530	40.54
3.540	40.79
3.550	41.03
3.560	41.28
3.570	41.53
3.580	41.78
3.590	42.03
3.600	42.28
3.610	42.53
3.620	42.78
3.630	43.03
3.640	43.28
3.650	43.54
3.660	43.79
3.670	44.05
3.680	44.30
3.690	44.56
3.700	44.82
3.710	45.08
3.720	45.34
3.730	45.60
3.740	45.86
3.750	46.12
3.760	46.39
3.770	46.65
3.780	46.92
3.790	47.18
3.800	47.45
3.810	47.72
3.820	47.98
3.830	48.25
3.840	48.52
3.850	48.79
3.860	49.07
3.870	49.34
3.880	49.61
3.890	49.89
3.900	50.16
3.910	50.44
3.920	50.71
3.930	50.99
3.940	51.27
3.950	51.55
3.960	51.83
3.970	52.11
3.980	52.39
3.990	52.68
4.000	52.96
4.010	53.24
4.020	53.53
4.030	53.82
4.040	54.10
4.050	54.39
4.060	54.68
4.070	54.97
4.080	55.26
4.090	55.55
4.100	55.85
4.110	56.14
4.120	56.43
4.130	56.73
4.140	57.02
4.150	57.32
4.160	57.62
4.170	57.92
4.180	58.22
4.190	58.52
4.200	58.82
4.210	59.12
4.220	59.42
4.230	59.73
4.240	60.03
4.250	60.34
4.260	60.64
4.270	60.95
4.280	61.26
4.290	61.57
4.300	61.88
4.310	62.19
4.320	62.50
4.330	62.81
4.340	63.12
4.350	63.44
4.360	63.75
4.370	64.07
4.380	64.39
4.390	64.70
4.400	65.02
4.410	65.34
4.420	65.66
4.430	65.98
4.440	66.31
4.450	66.63
4.460	66.95
4.470	67.28
4.480	67.60
4.490	67.93
4.500	68.26
4.510	68.59
4.520	68.92
4.530	69.25
4.540	69.58
4.550	69.91
4.560	70.24
4.570	70.58
4.580	70.91
4.590	71.25
4.600	71.58
4.610	71.92
4.620	72.26
4.630	72.60
4.640	72.94
4.650	73.28
4.660	73.62
4.670	73.96
4.680	74.31
4.690	74.65
4.700	75.00
4.710	75.34
4.720	75.69
4.730	76.04
4.740	76.39
4.750	76.74
4.760	77.09
4.770	77.44
4.780	77.79
4.790	78.15
4.800	78.50
4.810	78.86
4.820	79.21
4.830	79.57
4.840	79.93
4.850	80.29
4.860	80.65
4.870	81.01
4.880	81.37
4.890	81.73
4.900	82.10
4.910	82.46
4.920	82.83
4.930	83.19
4.940	83.56
4.950	83.93
4.960	84.30
4.970	84.67
4.980	85.04
4.990	85.41
5.000	85.78
5.010	86.16
5.020	86.53
5.030	86.91
5.040	87.28
5.050	87.66
5.060	88.04
5.070	88.42
5.080	88.80
5.090	89.18
5.100	89.56
5.110	89.94
5.120	90.33
5.130	90.71
5.140	91.10
5.150	91.48
5.160	91.87
5.170	92.26
5.180	92.65
5.190	93.04
5.200	93.43
5.210	93.82
5.220	94.22
5.230	94.61
5.240	95.00
5.250	95.40
5.260	95.80
5.270	96.19
5.280	96.59
5.290	96.99
5.300	97.39
5.310	97.79
5.320	98.20
5.330	98.60
5.340	99.00
5.350	99.41
5.360	99.81
5.370	100.22
5.380	100.63
5.390	101.04
5.400	101.45
5.410	101.86
5.420	102.27
5.430	102.68
5.440	103.10
5.450	103.51
5.460	103.93
5.470	104.34
5.480	104.76
5.490	105.18
5.500	105.60
5.510	106.02
5.520	106.44
5.530	106.86
5.540	107.28
5.550	107.71
5.560	108.13
5.570	108.56
5.580	108.98
5.590	109.41
5.600	109.84
5.610	110.27
5.620	110.70
5.630	111.13
5.640	111.56
5.650	111.99
5.660	112.43
5.670	112.86
5.680	113.30
5.690	113.74
5.700	114.17
5.710	114.61
5.720	115.05
5.730	115.49
5.740	115.94
5.750	116.38
5.760	116.82
5.770	117.27
5.780	117.71
5.790	118.16
5.800	118.60
5.810	119.05
5.820	119.50
5.830	119.95
5.840	120.40
5.850	120.86
5.860	121.31
5.870	121.76
5.880	122.22
5.890	122.67
5.900	123.13
5.910	123.59
5.920	124.05
5.930	124.51
5.940	124.97
5.950	125.43
5.960	125.89
5.970	126.35
5.980	126.82
5.990	127.28
6.000	127.75
6.010	128.22
6.020	128.68
6.030	129.15
6.040	129.62
6.050	130.09
6.060	130.57
6.070	131.04
6.080	131.51
6.090	131.99
6.100	132.46
6.110	132.94
6.120	133.42
6.130	133.90
6.140	134.38
6.150	134.86
6.160	135.34
6.170	135.82
6.180	136.30
6.190	136.79
6.200	137.27
6.210	137.76
6.220	138.25
6.230	138.74
6.240	139.22
6.250	139.71
6.260	140.21
6.270	140.70
6.280	141.19
6.290	141.68
6.300	142.18
6.310	142.68
6.320	143.17
6.330	143.67
6.340	144.17
6.350	144.67
6.360	145.17
6.370	145.67
6.380	146.17
6.390	146.68
6.400	147.18
6.410	147.69
6.420	148.19
6.430	148.70
6.440	149.21
6.450	149.72
6.460	150.23
6.470	150.74
6.480	151.25
6.490	151.76
6.500	152.28
6.510	152.79
6.520	153.31
6.530	153.83
6.540	154.34
6.550	154.86
6.560	155.38
6.570	155.90
6.580	156.43
6.590	156.95
6.600	157.47
6.610	158.00
6.620	158.52
6.630	159.05
6.640	159.58
6.650	160.11
6.660	160.63
6.670	161.17
6.680	161.70
6.690	162.23
6.700	162.76
6.710	163.30
6.720	163.83
6.730	164.37
6.740	164.91
6.750	165.44
6.760	165.98
6.770	166.52
6.780	167.06
6.790	167.61
6.800	168.15
6.810	168.69
6.820	169.24
6.830	169.78
6.840	170.33
6.850	170.88
6.860	171.43
6.870	171.98
6.880	172.53
6.890	173.08
6.900	173.63
6.910	174.19
6.920	174.74
6.930	175.30
6.940	175.85
6.950	176.41
6.960	176.97
6.970	177.53
6.980	178.09
6.990	178.65
7.000	179.21
7.010	179.78
7.020	180.34
7.030	180.91
7.040	181.47
7.050	182.04
7.060	182.61
7.070	183.18
7.080	183.75
7.090	184.32
7.100	184.89
7.110	185.46
7.120	186.04
7.130	186.61
7.140	187.19
7.150	187.77
7.160	188.34
7.170	188.92
7.180	189.50
7.190	190.08
7.200	190.66
7.210	191.25
7.220	191.83
7.230	192.42
7.240	193.00
7.250	193.59
7.260	194.18
7.270	194.76
7.280	195.35
7.290	195.94
7.300	196.54
7.310	197.13
7.320	197.72
7.330	198.32
7.340	198.91
7.350	199.51
7.360	200.11
7.370	200.70
7.380	201.30
7.390	201.90
7.400	202.50
7.410	203.11
7.420	203.71
7.430	204.31
7.440	204.92
7.450	205.52
7.460	206.13
7.470	206.74
7.480	207.35
7.490	207.96
7.500	208.57
7.510	209.18
7.520	209.79
7.530	210.41
7.540	211.02
7.550	211.64
7.560	212.25
7.570	212.87
7.580	213.49
7.590	214.11
7.600	214.73
7.610	215.35
7.620	215.98
7.630	216.60
7.640	217.22
7.650	217.85
7.660	218.47
7.670	219.10
7.680	219.73
7.690	220.36
7.700	220.99
7.710	221.62
7.720	222.25
7.730	222.89
7.740	223.52
7.750	224.16
7.760	224.79
7.770	225.43
7.780	226.07
7.790	226.71
7.800	227.35
7.810	227.99
7.820	228.63
7.830	229.27
7.840	229.91
7.850	230.56
7.860	231.20
7.870	231.85
7.880	232.50
7.890	233.15
7.900	233.80
7.910	234.45
7.920	235.10
7.930	235.75
7.940	236.40
7.950	237.06
7.960	237.71
7.970	238.37
7.980	239.03
7.990	239.69
8.000	240.34
8.010	241.00
8.020	241.67
8.030	242.33
8.040	242.99
8.050	243.65
8.060	244.32
8.070	244.99
8.080	245.65
8.090	246.32
8.100	246.99
8.110	247.66
8.120	248.33
8.130	249.00
8.140	249.67
8.150	250.35
8.160	251.02
8.170	251.70
8.180	252.37
8.190	253.05
8.200	253.73
8.210	254.41
8.220	255.09
8.230	255.77
8.240	256.45
8.250	257.13
8.260	257.82
8.270	258.50
8.280	259.19
8.290	259.88
8.300	260.56
8.310	261.25
8.320	261.94
8.330	262.63
8.340	263.33
8.350	264.02
8.360	264.71
8.370	265.41
8.380	266.10
8.390	266.80
8.400	267.50
8.410	268.19
8.420	268.89
8.430	269.59
8.440	270.29
8.450	271.00
8.460	271.70
8.470	272.40
8.480	273.11
8.490	273.81
8.500	274.52
8.510	275.23
8.520	275.94
8.530	276.65
8.540	277.36
8.550	278.07
8.560	278.78
8.570	279.50
8.580	280.21
8.590	280.93
8.600	281.64
8.610	282.36
8.620	283.08
8.630	283.80
8.640	284.52
8.650	285.24
8.660	285.96
8.670	286.68
8.680	287.41
8.690	288.13
8.700	288.86
8.710	289.59
8.720	290.31
8.730	291.04
8.740	291.77
8.750	292.50
8.760	293.23
8.770	293.97
8.780	294.70
8.790	295.43
8.800	296.17
8.810	296.91
8.820	297.64
8.830	298.38
8.840	299.12
8.850	299.86
8.860	300.60
8.870	301.34
8.880	302.09
8.890	302.83
8.900	303.57
8.910	304.32
8.920	305.07
8.930	305.81
8.940	306.56
8.950	307.31
8.960	308.06
8.970	308.81
8.980	309.56
8.990	310.32
9.000	311.07
9.010	311.83
9.020	312.58
9.030	313.34
9.040	314.10
9.050	314.86
9.060	315.62
9.070	316.38
9.080	317.14
9.090	317.90
9.100	318.66
9.110	319.43
9.120	320.19
9.130	320.96
9.140	321.73
9.150	322.50
9.160	323.26
9.170	324.03
9.180	324.80
9.190	325.58
9.200	326.35
9.210	327.12
9.220	327.90
9.230	328.67
9.240	329.45
9.250	330.23
9.260	331.01
9.270	331.78
9.280	332.57
9.290	333.35
9.300	334.13
9.310	334.91
9.320	335.70
9.330	336.48
9.340	337.27
9.350	338.05
9.360	338.84
9.370	339.63
9.380	340.42
9.390	341.21
9.400	342.00
9.410	342.79
9.420	343.59
9.430	344.38
9.440	345.18
9.450	345.97
9.460	346.77
9.470	347.57
9.480	348.37
9.490	349.17
9.500	349.97
9.510	350.77
9.520	351.57
9.530	352.37
9.540	353.18
9.550	353.98
9.560	354.79
9.570	355.60
9.580	356.41
9.590	357.21
9.600	358.02
9.610	358.84
9.620	359.65
9.630	360.46
9.640	361.27
9.650	362.09
9.660	362.90
9.670	363.72
9.680	364.54
9.690	365.36
9.700	366.18
9.710	367.00
9.720	367.82
9.730	368.64
9.740	369.46
9.750	370.29
9.760	371.11
9.770	371.94
9.780	372.77
9.790	373.59
9.800	374.42
9.810	375.25
9.820	376.08
9.830	376.91
9.840	377.75
9.850	378.58
9.860	379.41
9.870	380.25
9.880	381.08
9.890	381.92
9.900	382.76
9.910	383.60
9.920	384.44
9.930	385.28
9.940	386.12
9.950	386.96
9.960	387.81
9.970	388.65
9.980	389.50
9.990	390.34
10.000	391.19
10.010	392.04
10.020	392.89
10.030	393.74
10.040	394.59
10.050	395.44
10.060	396.29
10.070	397.15
10.080	398.00
10.090	398.86
10.100	399.72
10.110	400.57
10.120	401.43
10.130	402.29
10.140	403.15
10.150	404.01
10.160	404.87
10.170	405.74
10.180	406.60
10.190	407.47
10.200	408.33
10.210	409.20
10.220	410.07
10.230	410.94
10.240	411.81
10.250	412.68
10.260	413.55
10.270	414.42
10.280	415.29
10.290	416.17
10.300	417.04
10.310	417.92
10.320	418.80
10.330	419.67
10.340	420.55
10.350	421.43
10.360	422.31
10.370	423.20
10.380	424.08
10.390	424.96
10.400	425.85
10.410	426.73
10.420	427.62
10.430	428.51
10.440	429.39
10.450	430.28
10.460	431.17
10.470	432.07
10.480	432.96
10.490	433.85
10.500	434.74
10.510	435.64
10.520	436.54
10.530	437.43
10.540	438.33
10.550	439.23
10.560	440.13
10.570	441.03
10.580	441.93
10.590	442.83
10.600	443.74
10.610	444.64
10.620	445.55
10.630	446.45
10.640	447.36
10.650	448.27
10.660	449.18
10.670	450.09
10.680	451.00
10.690	451.91
10.700	452.82
10.710	453.73
10.720	454.65
10.730	455.56
10.740	456.48
10.750	457.40
10.760	458.32
10.770	459.24
10.780	460.16
10.790	461.08
10.800	462.00
10.810	462.92
10.820	463.85
10.830	464.77
10.840	465.70
10.850	466.62
10.860	467.55
10.870	468.48
10.880	469.41
10.890	470.34
10.900	471.27
10.910	472.21
10.920	473.14
10.930	474.07
10.940	475.01
10.950	475.95
10.960	476.88
10.970	477.82
10.980	478.76
10.990	479.70
11.000	480.64
11.010	481.58
11.020	482.53
11.030	483.47
11.040	484.41
11.050	485.36
11.060	486.31
11.070	487.25
11.080	488.20
11.090	489.15
11.100	490.10
11.110	491.05
11.120	492.01
11.130	492.96
11.140	493.92
11.150	494.87
11.160	495.83
11.170	496.78
11.180	497.74
11.190	498.70
11.200	499.66
11.210	500.62
11.220	501.58
11.230	502.55
11.240	503.51
11.250	504.47
11.260	505.44
11.270	506.41
11.280	507.37
11.290	508.34
11.300	509.31
11.310	510.28
11.320	511.25
11.330	512.23
11.340	513.20
11.350	514.17
11.360	515.15
11.370	516.13
11.380	517.10
11.390	518.08
11.400	519.06
11.410	520.04
11.420	521.02
11.430	522.00
11.440	522.99
11.450	523.97
11.460	524.95
11.470	525.94
11.480	526.93
11.490	527.91
11.500	528.90
11.510	529.89
11.520	530.88
11.530	531.87
11.540	532.87
11.550	533.86
11.560	534.85
11.570	535.85
11.580	536.84
11.590	537.84
11.600	538.84
11.610	539.84
11.620	540.84
11.630	541.84
11.640	542.84
11.650	543.84
11.660	544.85
11.670	545.85
11.680	546.86
11.690	547.87
11.700	548.87
11.710	549.88
11.720	550.89
11.730	551.90
11.740	552.91
11.750	553.93
11.760	554.94
11.770	555.95
11.780	556.97
11.790	557.98
11.800	559.00
11.810	560.02
11.820	561.04
11.830	562.06
11.840	563.08
11.850	564.10
11.860	565.13
11.870	566.15
11.880	567.17
11.890	568.20
11.900	569.23
11.910	570.25
11.920	571.28
11.930	572.31
11.940	573.34
11.950	574.38
11.960	575.41
11.970	576.44
11.980	577.48
11.990	578.51
12.000	579.55
12.010	580.58
12.020	581.62
12.030	582.66
12.040	583.70
12.050	584.74
12.060	585.79
12.070	586.83
12.080	587.87
12.090	588.92
12.100	589.96
12.110	591.01
12.120	592.06
12.130	593.11
12.140	594.16
12.150	595.21
12.160	596.26
12.170	597.31
12.180	598.37
12.190	599.42
12.200	600.48
12.210	601.53
12.220	602.59
12.230	603.65
12.240	604.71
12.250	605.77
12.260	606.83
12.270	607.89
12.280	608.96
12.290	610.02
12.300	611.09
12.310	612.15
12.320	613.22
12.330	614.29
12.340	615.36
12.350	616.43
12.360	617.50
12.370	618.57
12.380	619.64
12.390	620.72
12.400	621.79
12.410	622.87
12.420	623.95
12.430	625.02
12.440	626.10
12.450	627.18
12.460	628.26
12.470	629.34
12.480	630.43
12.490	631.51
12.500	632.60
12.510	633.68
12.520	634.77
12.530	635.85
12.540	636.94
12.550	638.03
12.560	639.12
12.570	640.21
12.580	641.31
12.590	642.40
12.600	643.49
12.610	644.59
12.620	645.69
12.630	646.78
12.640	647.88
12.650	648.98
12.660	650.08
12.670	651.18
12.680	652.28
12.690	653.39
12.700	654.49
12.710	655.60
12.720	656.70
12.730	657.81
12.740	658.92
12.750	660.02
12.760	661.13
12.770	662.24
12.780	663.36
12.790	664.47
12.800	665.58
12.810	666.70
12.820	667.81
12.830	668.93
12.840	670.05
12.850	671.17
12.860	672.29
12.870	673.41
12.880	674.53
12.890	675.65
12.900	676.77
12.910	677.90
12.920	679.02
12.930	680.15
12.940	681.28
12.950	682.40
12.960	683.53
12.970	684.66
12.980	685.79
12.990	686.93
13.000	688.06
13.010	689.19
13.020	690.33
13.030	691.46
13.040	692.60
13.050	693.74
13.060	694.88
13.070	696.02
13.080	697.16
13.090	698.30
13.100	699.44
13.110	700.59
13.120	701.73
13.130	702.88
13.140	704.02
13.150	705.17
13.160	706.32
13.170	707.47
13.180	708.62
13.190	709.77
13.200	710.92
13.210	712.08
13.220	713.23
13.230	714.39
13.240	715.54
13.250	716.70
13.260	717.86
13.270	719.02
13.280	720.18
13.290	721.34
13.300	722.50
13.310	723.66
13.320	724.83
13.330	725.99
13.340	727.16
13.350	728.33
13.360	729.49
13.370	730.66
13.380	731.83
13.390	733.00
13.400	734.18
13.410	735.35
13.420	736.52
13.430	737.70
13.440	738.87
13.450	740.05
13.460	741.23
13.470	742.41
13.480	743.59
13.490	744.77
13.500	745.95
13.510	747.13
13.520	748.32
13.530	749.50
13.540	750.69
13.550	751.87
13.560	753.06
13.570	754.25
13.580	755.44
13.590	756.63
13.600	757.82
13.610	759.01
13.620	760.21
13.630	761.40
13.640	762.60
13.650	763.79
13.660	764.99
13.670	766.19
13.680	767.39
13.690	768.59
13.700	769.79
13.710	770.99
13.720	772.19
13.730	773.40
13.740	774.60
13.750	775.81
13.760	777.02
13.770	778.23
13.780	779.43
13.790	780.64
13.800	781.86
13.810	783.07
13.820	784.28
13.830	785.50
13.840	786.71
13.850	787.93
13.860	789.14
13.870	790.36
13.880	791.58
13.890	792.80
13.900	794.02
13.910	795.24
13.920	796.47
13.930	797.69
13.940	798.91
13.950	800.14
13.960	801.37
13.970	802.60
13.980	803.82
13.990	805.05
14.000	806.28
14.010	807.52
14.020	808.75
14.030	809.98
14.040	811.22
14.050	812.45
14.060	813.69
14.070	814.93
14.080	816.17
14.090	817.41
14.100	818.65
14.110	819.89
14.120	821.13
14.130	822.38
14.140	823.62
14.150	824.87
14.160	826.11
14.170	827.36
14.180	828.61
14.190	829.86
14.200	831.11
14.210	832.36
14.220	833.61
14.230	834.87
14.240	836.12
14.250	837.38
14.260	838.63
14.270	839.89
14.280	841.15
14.290	842.41
14.300	843.67
14.310	844.93
14.320	846.19
14.330	847.46
14.340	848.72
14.350	849.99
14.360	851.25
14.370	852.52
14.380	853.79
14.390	855.06
14.400	856.33
14.410	857.60
14.420	858.87
14.430	860.15
14.440	861.42
14.450	862.70
14.460	863.97
14.470	865.25
14.480	866.53
14.490	867.81
14.500	869.09
14.510	870.37
14.520	871.65
14.530	872.94
14.540	874.22
14.550	875.51
14.560	876.79
14.570	878.08
14.580	879.37
14.590	880.66
14.600	881.95
14.610	883.24
14.620	884.53
14.630	885.83
14.640	887.12
14.650	888.42
14.660	889.71
14.670	891.01
14.680	892.31
14.690	893.61
14.700	894.91
14.710	896.21
14.720	897.51
14.730	898.81
14.740	900.12
14.750	901.42
14.760	902.73
14.770	904.04
14.780	905.35
14.790	906.66
14.800	907.97
14.810	909.28
14.820	910.59
14.830	911.90
14.840	913.22
14.850	914.53
14.860	915.85
14.870	917.17
14.880	918.49
14.890	919.81
14.900	921.13
14.910	922.45
14.920	923.77
14.930	925.09
14.940	926.42
14.950	927.74
14.960	929.07
14.970	930.40
14.980	931.73
14.990	933.06
15.000	934.39
15.010	935.72
15.020	937.05
15.030	938.39
15.040	939.72
15.050	941.06
15.060	942.39
15.070	943.73
15.080	945.07
15.090	946.41
15.100	947.75
15.110	949.09
15.120	950.43
15.130	951.78
15.140	953.12
15.150	954.47
15.160	955.81
15.170	957.16
15.180	958.51
15.190	959.86
15.200	961.21
15.210	962.56
15.220	963.92
15.230	965.27
15.240	966.62
15.250	967.98
15.260	969.34
15.270	970.70
15.280	972.05
15.290	973.41
15.300	974.78
15.310	976.14
15.320	977.50
15.330	978.86
15.340	980.23
15.350	981.60
15.360	982.96
15.370	984.33
15.380	985.70
15.390	987.07
15.400	988.44
15.410	989.81
15.420	991.19
15.430	992.56
15.440	993.94
15.450	995.31
15.460	996.69
15.470	998.07
15.480	999.45
15.490	1000.83
