t(c)	x(m)	y(m)	V(m/s)	theta_c(grad)	theta(grad)	alpha(grad)	omega_z(1/s)	M	Cxa	Cya_alpha	m(kg)	P(H)	g(m/s2)
0.000	0.00	0.00	10.000	85.000	85.000	0.000	0.0000	0.0294	0.3000	0.2500	1255.00	56000.0	9.8066
0.010	0.01	0.10	10.349	84.952	85.000	0.000	0.0000	0.0304	0.3000	0.2500	1254.80	56000.0	9.8066
0.020	0.02	0.21	10.697	84.904	85.000	0.000	0.0000	0.0314	0.3000	0.2500	1254.60	56000.0	9.8066
0.030	0.03	0.31	11.046	84.858	85.000	0.000	0.0000	0.0325	0.3000	0.2500	1254.40	56000.0	9.8066
0.040	0.04	0.43	11.395	84.813	85.000	0.000	0.0000	0.0335	0.3000	0.2500	1254.20	56000.0	9.8066
0.050	0.05	0.54	11.743	84.769	85.000	0.000	0.0000	0.0345	0.3000	0.2500	1254.00	56000.0	9.8066
0.060	0.06	0.66	12.092	84.726	85.000	0.000	0.0000	0.0355	0.3000	0.2500	1253.80	56000.0	9.8066
0.070	0.07	0.78	12.441	84.684	85.000	0.000	0.0000	0.0366	0.3000	0.2500	1253.60	56000.0	9.8066
0.080	0.08	0.91	12.790	84.642	85.000	0.000	0.0000	0.0376	0.3000	0.2500	1253.40	56000.0	9.8066
0.090	0.09	1.04	13.139	84.602	85.000	0.000	0.0000	0.0386	0.3000	0.2500	1253.20	56000.0	9.8066
0.100	0.11	1.17	13.489	84.562	85.000	0.000	0.0000	0.0396	0.3000	0.2500	1253.00	56000.0	9.8066
0.110	0.12	1.31	13.838	84.523	85.000	0.000	0.0000	0.0407	0.3000	0.2500	1252.80	56000.0	9.8066
0.120	0.13	1.44	14.187	84.484	85.000	0.000	0.0000	0.0417	0.3000	0.2500	1252.60	56000.0	9.8066
0.130	0.15	1.59	14.537	84.446	85.000	0.000	0.0000	0.0427	0.3000	0.2500	1252.40	56000.0	9.8066
0.140	0.16	1.73	14.886	84.409	85.000	0.000	0.0000	0.0437	0.3000	0.2500	1252.20	56000.0	9.8066
0.150	0.18	1.88	15.236	84.373	85.000	0.000	0.0000	0.0448	0.3000	0.2500	1252.00	56000.0	9.8066
0.160	0.19	2.04	15.585	84.337	85.000	0.000	0.0000	0.0458	0.3000	0.2500	1251.80	56000.0	9.8066
0.170	0.21	2.19	15.935	84.302	85.000	0.000	0.0000	0.0468	0.3000	0.2500	1251.60	56000.0	9.8066
0.180	0.22	2.35	16.285	84.267	85.000	0.000	0.0000	0.0479	0.3000	0.2500	1251.40	56000.0	9.8066
0.190	0.24	2.52	16.635	84.233	85.000	0.000	0.0000	0.0489	0.3000	0.2500	1251.20	56000.0	9.8066
0.200	0.26	2.69	16.985	84.199	85.000	0.000	0.0000	0.0499	0.3000	0.2500	1251.00	56000.0	9.8066
0.210	0.27	2.86	17.335	84.166	85.000	0.000	0.0000	0.0509	0.3000	0.2500	1250.80	56000.0	9.8066
0.220	0.29	3.03	17.685	84.133	85.000	0.000	0.0000	0.0520	0.3000	0.2500	1250.60	56000.0	9.8066
0.230	0.31	3.21	18.035	84.101	85.000	0.000	0.0000	0.0530	0.3000	0.2500	1250.40	56000.0	9.8066
0.240	0.33	3.39	18.385	84.069	85.000	0.000	0.0000	0.0540	0.3000	0.2500	1250.20	56000.0	9.8066
0.250	0.35	3.57	18.736	84.038	85.000	0.000	0.0000	0.0551	0.3000	0.2500	1250.00	56000.0	9.8066
0.260	0.37	3.76	19.086	84.007	85.000	0.000	0.0000	0.0561	0.3000	0.2500	1249.80	56000.0	9.8066
0.270	0.39	3.95	19.436	83.976	85.000	0.000	0.0000	0.0571	0.3000	0.2500	1249.60	56000.0	9.8066
0.280	0.41	4.15	19.787	83.946	85.000	0.000	0.0000	0.0581	0.3000	0.2500	1249.40	56000.0	9.8066
0.290	0.43	4.35	20.138	83.916	85.000	0.000	0.0000	0.0592	0.3000	0.2500	1249.20	56000.0	9.8066
0.300	0.45	4.55	20.488	83.887	85.000	0.000	0.0000	0.0602	0.3000	0.2500	1249.00	56000.0	9.8066
0.310	0.47	4.75	20.839	83.858	85.000	0.000	0.0000	0.0612	0.3000	0.2500	1248.80	56000.0	9.8066
0.320	0.50	4.96	21.190	83.829	85.000	0.000	0.0000	0.0623	0.3000	0.2500	1248.60	56000.0	9.8066
0.330	0.52	5.18	21.541	83.801	85.000	0.000	0.0000	0.0633	0.3000	0.2500	1248.40	56000.0	9.8066
0.340	0.54	5.39	21.892	83.773	85.000	0.000	0.0000	0.0643	0.3000	0.2500	1248.20	56000.0	9.8066
0.350	0.57	5.61	22.243	83.745	85.000	0.000	0.0000	0.0654	0.3000	0.2500	1248.00	56000.0	9.8066
0.360	0.59	5.83	22.594	83.718	85.000	0.000	0.0000	0.0664	0.3000	0.2500	1247.80	56000.0	9.8066
0.370	0.62	6.06	22.945	83.691	85.000	0.000	0.0000	0.0674	0.3000	0.2500	1247.60	56000.0	9.8066
0.380	0.64	6.29	23.296	83.664	85.000	0.000	0.0000	0.0685	0.3000	0.2500	1247.40	56000.0	9.8066
0.390	0.67	6.52	23.647	83.638	85.000	0.000	0.0000	0.0695	0.3000	0.2500	1247.20	56000.0	9.8066
0.400	0.69	6.76	23.999	83.611	85.000	0.000	0.0000	0.0705	0.3000	0.2500	1247.00	56000.0	9.8066
0.410	0.72	7.00	24.350	83.586	85.000	0.000	0.0000	0.0716	0.3000	0.2500	1246.80	56000.0	9.8066
0.420	0.75	7.24	24.702	83.560	85.000	0.000	0.0000	0.0726	0.3000	0.2500	1246.60	56000.0	9.8066
0.430	0.78	7.49	25.053	83.534	85.000	0.000	0.0000	0.0736	0.3000	0.2500	1246.40	56000.0	9.8066
0.440	0.80	7.74	25.405	83.509	85.000	0.000	0.0000	0.0747	0.3000	0.2500	1246.20	56000.0	9.8066
0.450	0.83	8.00	25.757	83.484	85.000	0.000	0.0000	0.0757	0.3000	0.2500	1246.00	56000.0	9.8066
0.460	0.86	8.25	26.109	83.460	85.000	0.000	0.0000	0.0767	0.3000	0.2500	1245.80	56000.0	9.8066
0.470	0.89	8.51	26.461	83.435	85.000	0.000	0.0000	0.0778	0.3000	0.2500	1245.60	56000.0	9.8066
0.480	0.92	8.78	26.813	83.411	85.000	0.000	0.0000	0.0788	0.3000	0.2500	1245.40	56000.0	9.8066
0.490	0.95	9.05	27.165	83.387	85.000	0.000	0.0000	0.0798	0.3000	0.2500	1245.20	56000.0	9.8066
0.500	0.99	9.32	27.517	83.364	85.000	0.000	0.0000	0.0809	0.3000	0.2500	1245.00	56000.0	9.8066
0.510	1.02	9.59	27.869	83.340	85.000	0.000	0.0000	0.0819	0.3000	0.2500	1244.80	56000.0	9.8066
0.520	1.05	9.87	28.221	83.317	85.000	0.000	0.0000	0.0829	0.3000	0.2500	1244.60	56000.0	9.8066
0.530	1.08	10.15	28.573	83.294	85.000	0.000	0.0000	0.0840	0.3000	0.2500	1244.40	56000.0	9.8066
0.540	1.12	10.44	28.926	83.271	85.000	0.000	0.0000	0.0850	0.3000	0.2500	1244.20	56000.0	9.8066
0.550	1.15	10.73	29.278	83.248	85.000	0.000	0.0000	0.0860	0.3000	0.2500	1244.00	56000.0	9.8066
0.560	1.19	11.02	29.631	83.226	85.000	0.000	0.0000	0.0871	0.3000	0.2500	1243.80	56000.0	9.8066
0.570	1.22	11.32	29.983	83.204	85.000	0.000	0.0000	0.0881	0.3000	0.2500	1243.60	56000.0	9.8066
0.580	1.26	11.62	30.336	83.181	85.000	0.000	0.0000	0.0892	0.3000	0.2500	1243.40	56000.0	9.8066
0.590	1.29	11.92	30.689	83.160	85.000	0.000	0.0000	0.0902	0.3000	0.2500	1243.20	56000.0	9.8066
0.600	1.33	12.23	31.041	83.138	85.000	0.000	0.0000	0.0912	0.3000	0.2500	1243.00	56000.0	9.8066
0.610	1.37	12.54	31.394	83.116	85.000	0.000	0.0000	0.0923	0.3000	0.2500	1242.80	56000.0	9.8066
0.620	1.41	12.85	31.747	83.095	85.000	0.000	0.0000	0.0933	0.3000	0.2500	1242.60	56000.0	9.8066
0.630	1.44	13.17	32.100	83.074	85.000	0.000	0.0000	0.0943	0.3000	0.2500	1242.40	56000.0	9.8066
0.640	1.48	13.49	32.453	83.053	85.000	0.000	0.0000	0.0954	0.3000	0.2500	1242.20	56000.0	9.8066
0.650	1.52	13.81	32.807	83.032	85.000	0.000	0.0000	0.0964	0.3000	0.2500	1242.00	56000.0	9.8066
0.660	1.56	14.14	33.160	83.011	85.000	0.000	0.0000	0.0975	0.3000	0.2500	1241.80	56000.0	9.8066
0.670	1.60	14.47	33.513	82.991	85.000	0.000	0.0000	0.0985	0.3000	0.2500	1241.60	56000.0	9.8066
0.680	1.64	14.80	33.866	82.970	85.000	0.000	0.0000	0.0995	0.3000	0.2500	1241.40	56000.0	9.8066
0.690	1.69	15.14	34.220	82.950	85.000	0.000	0.0000	0.1006	0.3000	0.2500	1241.20	56000.0	9.8066
0.700	1.73	15.48	34.573	82.930	85.000	0.000	0.0000	0.1016	0.3000	0.2500	1241.00	56000.0	9.8066
0.710	1.77	15.83	34.927	82.910	85.000	0.000	0.0000	0.1027	0.3000	0.2500	1240.80	56000.0	9.8066
0.720	1.81	16.18	35.280	82.890	85.000	0.000	0.0000	0.1037	0.3000	0.2500	1240.60	56000.0	9.8066
0.730	1.86	16.53	35.634	82.871	85.000	0.000	0.0000	0.1047	0.3000	0.2500	1240.40	56000.0	9.8066
0.740	1.90	16.88	35.988	82.851	85.000	0.000	0.0000	0.1058	0.3000	0.2500	1240.20	56000.0	9.8066
0.750	1.95	17.24	36.342	82.832	85.000	0.000	0.0000	0.1068	0.3000	0.2500	1240.00	56000.0	9.8066
0.760	1.99	17.60	36.696	82.813	85.000	0.000	0.0000	0.1079	0.3000	0.2500	1239.80	56000.0	9.8066
0.770	2.04	17.97	37.050	82.793	85.000	0.000	0.0000	0.1089	0.3000	0.2500	1239.60	56000.0	9.8066
0.780	2.09	18.34	37.404	82.774	85.000	0.000	0.0000	0.1099	0.3000	0.2500	1239.40	56000.0	9.8066
0.790	2.13	18.71	37.758	82.756	85.000	0.000	0.0000	0.1110	0.3000	0.2500	1239.20	56000.0	9.8066
0.800	2.18	19.09	38.112	82.737	85.000	0.000	0.0000	0.1120	0.3000	0.2500	1239.00	56000.0	9.8066
0.810	2.23	19.47	38.466	82.718	85.000	0.000	0.0000	0.1131	0.3000	0.2500	1238.80	56000.0	9.8066
0.820	2.28	19.85	38.820	82.700	85.000	0.000	0.0000	0.1141	0.3000	0.2500	1238.60	56000.0	9.8066
0.830	2.33	20.24	39.175	82.682	85.000	0.000	0.0000	0.1151	0.3000	0.2500	1238.40	56000.0	9.8066
0.840	2.38	20.63	39.529	82.663	85.000	0.000	0.0000	0.1162	0.3000	0.2500	1238.20	56000.0	9.8066
0.850	2.43	21.02	39.884	82.645	85.000	0.000	0.0000	0.1172	0.3000	0.2500	1238.00	56000.0	9.8066
0.860	2.48	21.42	40.238	82.627	85.000	0.000	0.0000	0.1183	0.3000	0.2500	1237.80	56000.0	9.8066
0.870	2.53	21.82	40.593	82.609	85.000	0.000	0.0000	0.1193	0.3000	0.2500	1237.60	56000.0	9.8066
0.880	2.59	22.23	40.948	82.592	85.000	0.000	0.0000	0.1204	0.3000	0.2500	1237.40	56000.0	9.8066
0.890	2.64	22.63	41.302	82.574	85.000	0.000	0.0000	0.1214	0.3000	0.2500	1237.20	56000.0	9.8066
0.900	2.69	23.04	41.657	82.557	85.000	0.000	0.0000	0.1224	0.3000	0.2500	1237.00	56000.0	9.8066
0.910	2.75	23.46	42.012	82.539	85.000	0.000	0.0000	0.1235	0.3000	0.2500	1236.80	56000.0	9.8066
0.920	2.80	23.88	42.367	82.522	85.000	0.000	0.0000	0.1245	0.3000	0.2500	1236.60	56000.0	9.8066
0.930	2.86	24.30	42.722	82.505	85.000	0.000	0.0000	0.1256	0.3000	0.2500	1236.40	56000.0	9.8066
0.940	2.91	24.72	43.077	82.487	85.000	0.000	0.0000	0.1266	0.3000	0.2500	1236.20	56000.0	9.8066
0.950	2.97	25.15	43.432	82.470	85.000	0.000	0.0000	0.1277	0.3000	0.2500	1236.00	56000.0	9.8066
0.960	3.03	25.59	43.788	82.454	85.000	0.000	0.0000	0.1287	0.3000	0.2500	1235.80	56000.0	9.8066
0.970	3.08	26.02	44.143	82.437	85.000	0.000	0.0000	0.1298	0.3000	0.2500	1235.60	56000.0	9.8066
0.980	3.14	26.46	44.498	82.420	85.000	0.000	0.0000	0.1308	0.3000	0.2500	1235.40	56000.0	9.8066
0.990	3.20	26.90	44.854	82.403	85.000	0.000	0.0000	0.1318	0.3000	0.2500	1235.20	56000.0	9.8066
1.000	3.26	27.35	45.209	82.387	85.000	0.000	0.0000	0.1329	0.3000	0.2500	1235.00	56000.0	9.8066
1.010	3.32	27.80	45.565	82.371	85.000	0.000	0.0000	0.1339	0.3000	0.2500	1234.80	56000.0	9.8066
1.020	3.38	28.25	45.921	82.354	85.000	0.000	0.0000	0.1350	0.3000	0.2500	1234.60	56000.0	9.8066
1.030	3.44	28.71	46.276	82.338	85.000	0.000	0.0000	0.1360	0.3000	0.2500	1234.40	56000.0	9.8066
1.040	3.51	29.17	46.632	82.322	85.000	0.000	0.0000	0.1371	0.3000	0.2500	1234.20	56000.0	9.8066
1.050	3.57	29.63	46.988	82.306	85.000	0.000	0.0000	0.1381	0.3000	0.2500	1234.00	56000.0	9.8066
1.060	3.63	30.10	47.344	82.290	85.000	0.000	0.0000	0.1392	0.3000	0.2500	1233.80	56000.0	9.8066
1.070	3.70	30.57	47.700	82.274	85.000	0.000	0.0000	0.1402	0.3000	0.2500	1233.60	56000.0	9.8066
1.080	3.76	31.05	48.056	82.258	85.000	0.000	0.0000	0.1413	0.3000	0.2500	1233.40	56000.0	9.8066
1.090	3.83	31.53	48.412	82.242	85.000	0.000	0.0000	0.1423	0.3000	0.2500	1233.20	56000.0	9.8066
1.100	3.89	32.01	48.768	82.227	85.000	0.000	0.0000	0.1434	0.3000	0.2500	1233.00	56000.0	9.8066
1.110	3.96	32.49	49.124	82.211	85.000	0.000	0.0000	0.1444	0.3000	0.2500	1232.80	56000.0	9.8065
1.120	4.02	32.98	49.481	82.196	85.000	0.000	0.0000	0.1455	0.3000	0.2500	1232.60	56000.0	9.8065
1.130	4.09	33.47	49.837	82.180	85.000	0.000	0.0000	0.1465	0.3000	0.2500	1232.40	56000.0	9.8065
1.140	4.16	33.97	50.193	82.165	85.000	0.000	0.0000	0.1476	0.3000	0.2500	1232.20	56000.0	9.8065
1.150	4.23	34.47	50.550	82.150	85.000	0.000	0.0000	0.1486	0.3000	0.2500	1232.00	56000.0	9.8065
1.160	4.30	34.97	50.906	82.135	85.000	0.000	0.0000	0.1497	0.3000	0.2500	1231.80	56000.0	9.8065
1.170	4.37	35.48	51.263	82.120	85.000	0.000	0.0000	0.1507	0.3000	0.2500	1231.60	56000.0	9.8065
1.180	4.44	35.98	51.620	82.105	85.000	0.000	0.0000	0.1518	0.3000	0.2500	1231.40	56000.0	9.8065
1.190	4.51	36.50	51.976	82.090	85.000	0.000	0.0000	0.1528	0.3000	0.2500	1231.20	56000.0	9.8065
1.200	4.58	37.01	52.333	82.075	85.000	0.000	0.0000	0.1539	0.3000	0.2500	1231.00	56000.0	9.8065
1.210	4.65	37.53	52.690	82.060	85.000	0.000	0.0000	0.1549	0.3000	0.2500	1230.80	56000.0	9.8065
1.220	4.73	38.06	53.047	82.045	85.000	0.000	0.0000	0.1560	0.3000	0.2500	1230.60	56000.0	9.8065
1.230	4.80	38.59	53.404	82.031	85.000	0.000	0.0000	0.1570	0.3000	0.2500	1230.40	56000.0	9.8065
1.240	4.88	39.12	53.761	82.016	85.000	0.000	0.0000	0.1581	0.3000	0.2500	1230.20	56000.0	9.8065
1.250	4.95	39.65	54.118	82.002	85.000	0.000	0.0000	0.1591	0.3000	0.2500	1230.00	56000.0	9.8065
1.260	5.03	40.19	54.475	81.987	85.000	0.000	0.0000	0.1602	0.3000	0.2500	1229.80	56000.0	9.8065
1.270	5.10	40.73	54.833	81.973	85.000	0.000	0.0000	0.1612	0.3000	0.2500	1229.60	56000.0	9.8065
1.280	5.18	41.27	55.190	81.959	85.000	0.000	0.0000	0.1623	0.3000	0.2500	1229.40	56000.0	9.8065
1.290	5.26	41.82	55.547	81.945	85.000	0.000	0.0000	0.1633	0.3000	0.2500	1229.20	56000.0	9.8065
1.300	5.33	42.37	55.905	81.930	85.000	0.000	0.0000	0.1644	0.3000	0.2500	1229.00	56000.0	9.8065
1.310	5.41	42.93	56.262	81.916	85.000	0.000	0.0000	0.1654	0.3000	0.2500	1228.80	56000.0	9.8065
1.320	5.49	43.49	56.620	81.902	85.000	0.000	0.0000	0.1665	0.3000	0.2500	1228.60	56000.0	9.8065
1.330	5.57	44.05	56.978	81.888	85.000	0.000	0.0000	0.1675	0.3000	0.2500	1228.40	56000.0	9.8065
1.340	5.65	44.62	57.335	81.875	85.000	0.000	0.0000	0.1686	0.3000	0.2500	1228.20	56000.0	9.8065
1.350	5.74	45.19	57.693	81.861	85.000	0.000	0.0000	0.1696	0.3000	0.2500	1228.00	56000.0	9.8065
1.360	5.82	45.76	58.051	81.847	85.000	0.000	0.0000	0.1707	0.3000	0.2500	1227.80	56000.0	9.8065
1.370	5.90	46.33	58.409	81.833	85.000	0.000	0.0000	0.1717	0.3000	0.2500	1227.60	56000.0	9.8065
1.380	5.98	46.91	58.767	81.820	85.000	0.000	0.0000	0.1728	0.3000	0.2500	1227.40	56000.0	9.8065
1.390	6.07	47.50	59.125	81.806	85.000	0.000	0.0000	0.1738	0.3000	0.2500	1227.20	56000.0	9.8065
1.400	6.15	48.08	59.483	81.793	85.000	0.000	0.0000	0.1749	0.3000	0.2500	1227.00	56000.0	9.8065
1.410	6.24	48.68	59.841	81.779	85.000	0.000	0.0000	0.1759	0.3000	0.2500	1226.80	56000.0	9.8065
1.420	6.32	49.27	60.199	81.766	85.000	0.000	0.0000	0.1770	0.3000	0.2500	1226.60	56000.0	9.8065
1.430	6.41	49.87	60.558	81.752	85.000	0.000	0.0000	0.1781	0.3000	0.2500	1226.40	56000.0	9.8065
1.440	6.50	50.47	60.916	81.739	85.000	0.000	0.0000	0.1791	0.3000	0.2500	1226.20	56000.0	9.8065
1.450	6.58	51.07	61.274	81.726	85.000	0.000	0.0000	0.1802	0.3000	0.2500	1226.00	56000.0	9.8065
1.460	6.67	51.68	61.633	81.713	85.000	0.000	0.0000	0.1812	0.3000	0.2500	1225.80	56000.0	9.8065
1.470	6.76	52.29	61.991	81.700	85.000	0.000	0.0000	0.1823	0.3000	0.2500	1225.60	56000.0	9.8065
1.480	6.85	52.91	62.350	81.686	85.000	0.000	0.0000	0.1833	0.3000	0.2500	1225.40	56000.0	9.8065
1.490	6.94	53.53	62.709	81.673	85.000	0.000	0.0000	0.1844	0.3000	0.2500	1225.20	56000.0	9.8065
1.500	7.03	54.15	63.067	81.661	85.000	0.000	0.0000	0.1854	0.3000	0.2500	1225.00	56000.0	9.8065
1.510	7.13	54.77	63.426	81.648	85.000	0.000	0.0000	0.1865	0.3000	0.2500	1224.80	56000.0	9.8065
1.520	7.22	55.40	63.785	81.635	85.000	0.000	0.0000	0.1876	0.3000	0.2500	1224.60	56000.0	9.8065
1.530	7.31	56.04	64.144	81.622	85.000	0.000	0.0000	0.1886	0.3000	0.2500	1224.40	56000.0	9.8065
1.540	7.40	56.67	64.503	81.609	85.000	0.000	0.0000	0.1897	0.3000	0.2500	1224.20	56000.0	9.8065
1.550	7.50	57.31	64.862	81.597	85.000	0.000	0.0000	0.1907	0.3000	0.2500	1224.00	56000.0	9.8065
1.560	7.59	57.96	65.221	81.584	85.000	0.000	0.0000	0.1918	0.3000	0.2500	1223.80	56000.0	9.8065
1.570	7.69	58.60	65.580	81.571	85.000	0.000	0.0000	0.1928	0.3000	0.2500	1223.60	56000.0	9.8065
1.580	7.79	59.25	65.939	81.559	85.000	0.000	0.0000	0.1939	0.3000	0.2500	1223.40	56000.0	9.8065
1.590	7.88	59.91	66.298	81.546	85.000	0.000	0.0000	0.1950	0.3000	0.2500	1223.20	56000.0	9.8065
1.600	7.98	60.57	66.658	81.534	85.000	0.000	0.0000	0.1960	0.3000	0.2500	1223.00	56000.0	9.8065
1.610	8.08	61.23	67.017	81.522	85.000	0.000	0.0000	0.1971	0.3000	0.2500	1222.80	56000.0	9.8065
1.620	8.18	61.89	67.377	81.509	85.000	0.000	0.0000	0.1981	0.3000	0.2500	1222.60	56000.0	9.8065
1.630	8.28	62.56	67.736	81.497	85.000	0.000	0.0000	0.1992	0.3000	0.2500	1222.40	56000.0	9.8065
1.640	8.38	63.23	68.096	81.485	85.000	0.000	0.0000	0.2003	0.3000	0.2500	1222.20	56000.0	9.8065
1.650	8.48	63.91	68.455	81.472	85.000	0.000	0.0000	0.2013	0.3000	0.2500	1222.00	56000.0	9.8065
1.660	8.58	64.58	68.815	81.460	85.000	0.000	0.0000	0.2024	0.3000	0.2500	1221.80	56000.0	9.8065
1.670	8.68	65.27	69.175	81.448	85.000	0.000	0.0000	0.2034	0.3000	0.2500	1221.60	56000.0	9.8064
1.680	8.79	65.95	69.535	81.436	85.000	0.000	0.0000	0.2045	0.3000	0.2500	1221.40	56000.0	9.8064
1.690	8.89	66.64	69.895	81.424	85.000	0.000	0.0000	0.2055	0.3000	0.2500	1221.20	56000.0	9.8064
1.700	9.00	67.34	70.254	81.412	85.000	0.000	0.0000	0.2066	0.3000	0.2500	1221.00	56000.0	9.8064
1.710	9.10	68.03	70.614	81.400	85.000	0.000	0.0000	0.2077	0.3000	0.2500	1220.80	56000.0	9.8064
1.720	9.21	68.73	70.975	81.388	85.000	0.000	0.0000	0.2087	0.3000	0.2500	1220.60	56000.0	9.8064
1.730	9.31	69.43	71.335	81.377	85.000	0.000	0.0000	0.2098	0.3000	0.2500	1220.40	56000.0	9.8064
1.740	9.42	70.14	71.695	81.365	85.000	0.000	0.0000	0.2109	0.3000	0.2500	1220.20	56000.0	9.8064
1.750	9.53	70.85	72.055	81.353	85.000	0.000	0.0000	0.2119	0.3000	0.2500	1220.00	56000.0	9.8064
1.760	9.64	71.57	72.415	81.341	85.000	0.000	0.0000	0.2130	0.3000	0.2500	1219.80	56000.0	9.8064
1.770	9.75	72.28	72.776	81.330	85.000	0.000	0.0000	0.2140	0.3000	0.2500	1219.60	56000.0	9.8064
1.780	9.86	73.01	73.136	81.318	85.000	0.000	0.0000	0.2151	0.3000	0.2500	1219.40	56000.0	9.8064
1.790	9.97	73.73	73.497	81.306	85.000	0.000	0.0000	0.2162	0.3000	0.2500	1219.20	56000.0	9.8064
1.800	10.08	74.46	73.857	81.295	85.000	0.000	0.0000	0.2172	0.3000	0.2500	1219.00	56000.0	9.8064
1.810	10.19	75.19	74.218	81.283	85.000	0.000	0.0000	0.2183	0.3000	0.2500	1218.80	56000.0	9.8064
1.820	10.30	75.93	74.578	81.272	85.000	0.000	0.0000	0.2193	0.3000	0.2500	1218.60	56000.0	9.8064
1.830	10.42	76.66	74.939	81.261	85.000	0.000	0.0000	0.2204	0.3000	0.2500	1218.40	56000.0	9.8064
1.840	10.53	77.41	75.300	81.249	85.000	0.000	0.0000	0.2215	0.3000	0.2500	1218.20	56000.0	9.8064
1.850	10.65	78.15	75.661	81.238	85.000	0.000	0.0000	0.2225	0.3000	0.2500	1218.00	56000.0	9.8064
1.860	10.76	78.90	76.022	81.227	85.000	0.000	0.0000	0.2236	0.3000	0.2500	1217.80	56000.0	9.8064
1.870	10.88	79.66	76.383	81.215	85.000	0.000	0.0000	0.2247	0.3000	0.2500	1217.60	56000.0	9.8064
1.880	11.00	80.41	76.744	81.204	85.000	0.000	0.0000	0.2257	0.3000	0.2500	1217.40	56000.0	9.8064
1.890	11.11	81.17	77.105	81.193	85.000	0.000	0.0000	0.2268	0.3000	0.2500	1217.20	56000.0	9.8064
1.900	11.23	81.94	77.466	81.182	85.000	0.000	0.0000	0.2279	0.3000	0.2500	1217.00	56000.0	9.8064
1.910	11.35	82.70	77.827	81.171	85.000	0.000	0.0000	0.2289	0.3000	0.2500	1216.80	56000.0	9.8064
1.920	11.47	83.47	78.188	81.160	85.000	0.000	0.0000	0.2300	0.3000	0.2500	1216.60	56000.0	9.8064
1.930	11.59	84.25	78.550	81.149	85.000	0.000	0.0000	0.2310	0.3000	0.2500	1216.40	56000.0	9.8064
1.940	11.71	85.03	78.911	81.138	85.000	0.000	0.0000	0.2321	0.3000	0.2500	1216.20	56000.0	9.8064
1.950	11.84	85.81	79.272	81.127	85.000	0.000	0.0000	0.2332	0.3000	0.2500	1216.00	56000.0	9.8064
1.960	11.96	86.59	79.634	81.116	85.000	0.000	0.0000	0.2342	0.3000	0.2500	1215.80	56000.0	9.8064
1.970	12.08	87.38	79.995	81.105	85.000	0.000	0.0000	0.2353	0.3000	0.2500	1215.60	56000.0	9.8064
1.980	12.21	88.17	80.357	81.094	85.000	0.000	0.0000	0.2364	0.3000	0.2500	1215.40	56000.0	9.8064
1.990	12.33	88.97	80.719	81.083	85.000	0.000	0.0000	0.2374	0.3000	0.2500	1215.20	56000.0	9.8064
2.000	12.46	89.77	81.080	81.072	85.000	0.000	0.0000	0.2385	0.3000	0.2500	1215.00	56000.0	9.8064
2.010	12.58	90.57	81.442	81.062	85.000	0.000	0.0000	0.2396	0.3000	0.2500	1214.80	56000.0	9.8064
2.020	12.71	91.38	81.804	81.051	85.000	0.000	0.0000	0.2406	0.3000	0.2500	1214.60	56000.0	9.8064
2.030	12.84	92.19	82.166	81.040	85.000	0.000	0.0000	0.2417	0.3000	0.2500	1214.40	56000.0	9.8064
2.040	12.96	93.00	82.528	81.030	85.000	0.000	0.0000	0.2428	0.3000	0.2500	1214.20	56000.0	9.8064
2.050	13.09	93.82	82.890	81.019	85.000	0.000	0.0000	0.2438	0.3000	0.2500	1214.00	56000.0	9.8064
2.060	13.22	94.64	83.252	81.009	85.000	0.000	0.0000	0.2449	0.3000	0.2500	1213.80	56000.0	9.8064
2.070	13.35	95.46	83.614	80.998	85.000	0.000	0.0000	0.2460	0.3000	0.2500	1213.60	56000.0	9.8064
2.080	13.48	96.29	83.976	80.988	85.000	0.000	0.0000	0.2470	0.3000	0.2500	1213.40	56000.0	9.8064
